Elapsed Time,EMGBICEP,BioRadio Event,
00:00:00,-0.0027923583984375,0,
00:00:00.0005,-0.00275802612304688,0,
00:00:00.001,-0.00271797180175781,0,
00:00:00.0015,-0.00267791748046875,0,
00:00:00.002,-0.00267791748046875,0,
00:00:00.0025,-0.00267791748046875,0,
00:00:00.003,-0.00267791748046875,0,
00:00:00.0035,-0.00267791748046875,0,
00:00:00.004,-0.00267791748046875,0,
00:00:00.0045,-0.00268363952636719,0,
00:00:00.005,-0.00268363952636719,0,
00:00:00.0055,-0.00269508361816406,0,
00:00:00.006,-0.00270652770996094,0,
00:00:00.0065,-0.00272369384765625,0,
00:00:00.007,-0.00273513793945313,0,
00:00:00.0075,-0.00274085998535156,0,
00:00:00.008,-0.00275230407714844,0,
00:00:00.0085,-0.00276947021484375,0,
00:00:00.009,-0.0027923583984375,0,
00:00:00.0095,-0.00283241271972656,0,
00:00:00.01,-0.00287818908691406,0,
00:00:00.0105,-0.00291252136230469,0,
00:00:00.011,-0.00294113159179688,0,
00:00:00.0115,-0.00296401977539063,0,
00:00:00.012,-0.0029754638671875,0,
00:00:00.0125,-0.00298690795898438,0,
00:00:00.013,-0.00299263000488281,0,
00:00:00.0135,-0.00299263000488281,0,
00:00:00.014,-0.0029754638671875,0,
00:00:00.0145,-0.00294113159179688,0,
00:00:00.015,-0.00290679931640625,0,
00:00:00.0155,-0.00287818908691406,0,
00:00:00.016,-0.00284957885742188,0,
00:00:00.0165,-0.00281524658203125,0,
00:00:00.017,-0.00277519226074219,0,
00:00:00.0175,-0.00274085998535156,0,
00:00:00.018,-0.0027008056640625,0,
00:00:00.0185,-0.00268936157226563,0,
00:00:00.019,-0.00268936157226563,0,
00:00:00.0195,-0.00269508361816406,0,
00:00:00.02,-0.00274085998535156,0,
00:00:00.0205,-0.00266647338867188,0,
00:00:00.021,-0.00268936157226563,0,
00:00:00.0215,-0.00269508361816406,0,
00:00:00.022,-0.00262069702148438,0,
00:00:00.0225,-0.00264930725097656,0,
00:00:00.023,-0.00267219543457031,0,
00:00:00.0235,-0.00268936157226563,0,
00:00:00.024,-0.00270652770996094,0,
00:00:00.0245,-0.00272369384765625,0,
00:00:00.025,-0.00279808044433594,0,
00:00:00.0255,-0.00275230407714844,0,
00:00:00.026,-0.00276374816894531,0,
00:00:00.0265,-0.00282669067382813,0,
00:00:00.027,-0.0028839111328125,0,
00:00:00.0275,-0.00292396545410156,0,
00:00:00.028,-0.00295257568359375,0,
00:00:00.0285,-0.00300407409667969,0,
00:00:00.029,-0.00299835205078125,0,
00:00:00.0295,-0.00298690795898438,0,
00:00:00.03,-0.00299835205078125,0,
00:00:00.0305,-0.00299263000488281,0,
00:00:00.031,-0.00296401977539063,0,
00:00:00.0315,-0.0029296875,0,
00:00:00.032,-0.00290679931640625,0,
00:00:00.0325,-0.00292396545410156,0,
00:00:00.033,-0.00282096862792969,0,
00:00:00.0335,-0.00276374816894531,0,
00:00:00.034,-0.00273513793945313,0,
00:00:00.0345,-0.0027008056640625,0,
00:00:00.035,-0.00268936157226563,0,
00:00:00.0355,-0.00269508361816406,0,
00:00:00.036,-0.00268936157226563,0,
00:00:00.0365,-0.00268936157226563,0,
00:00:00.037,-0.00268363952636719,0,
00:00:00.0375,-0.00268363952636719,0,
00:00:00.038,-0.00268363952636719,0,
00:00:00.0385,-0.00268363952636719,0,
00:00:00.039,-0.00268936157226563,0,
00:00:00.0395,-0.0027008056640625,0,
00:00:00.04,-0.00271224975585938,0,
00:00:00.0405,-0.00271797180175781,0,
00:00:00.041,-0.00272941589355469,0,
00:00:00.0415,-0.00274085998535156,0,
00:00:00.042,-0.00276374816894531,0,
00:00:00.0425,-0.00278663635253906,0,
00:00:00.043,-0.00282669067382813,0,
00:00:00.0435,-0.00287246704101563,0,
00:00:00.044,-0.00290107727050781,0,
00:00:00.0445,-0.0029296875,0,
00:00:00.045,-0.00295257568359375,0,
00:00:00.0455,-0.0029754638671875,0,
00:00:00.046,-0.00299263000488281,0,
00:00:00.0465,-0.00299835205078125,0,
00:00:00.047,-0.00299263000488281,0,
00:00:00.0475,-0.00296974182128906,0,
00:00:00.048,-0.00293540954589844,0,
00:00:00.0485,-0.00290679931640625,0,
00:00:00.049,-0.00287818908691406,0,
00:00:00.0495,-0.00284385681152344,0,
00:00:00.05,-0.00279808044433594,0,
00:00:00.0505,-0.00276374816894531,0,
00:00:00.051,-0.00272369384765625,0,
00:00:00.0515,-0.00268936157226563,0,
00:00:00.052,-0.00268936157226563,0,
00:00:00.0525,-0.00268936157226563,0,
00:00:00.053,-0.00268936157226563,0,
00:00:00.0535,-0.00268363952636719,0,
00:00:00.054,-0.00268363952636719,0,
00:00:00.0545,-0.00268363952636719,0,
00:00:00.055,-0.00267791748046875,0,
00:00:00.0555,-0.00268363952636719,0,
00:00:00.056,-0.00272941589355469,0,
00:00:00.0565,-0.00276374816894531,0,
00:00:00.057,-0.00267791748046875,0,
00:00:00.0575,-0.00268936157226563,0,
00:00:00.058,-0.00271797180175781,0,
00:00:00.0585,-0.00278663635253906,0,
00:00:00.059,-0.00280952453613281,0,
00:00:00.0595,-0.00278091430664063,0,
00:00:00.06,-0.00284385681152344,0,
00:00:00.0605,-0.00289535522460938,0,
00:00:00.061,-0.00292396545410156,0,
00:00:00.0615,-0.00295257568359375,0,
00:00:00.062,-0.00296974182128906,0,
00:00:00.0625,-0.00298118591308594,0,
00:00:00.063,-0.00298690795898438,0,
00:00:00.0635,-0.00298690795898438,0,
00:00:00.064,-0.00296401977539063,0,
00:00:00.0645,-0.00294113159179688,0,
00:00:00.065,-0.00295829772949219,0,
00:00:00.0655,-0.00284957885742188,0,
00:00:00.066,-0.00280380249023438,0,
00:00:00.0665,-0.00278091430664063,0,
00:00:00.067,-0.00274658203125,0,
00:00:00.0675,-0.00271797180175781,0,
00:00:00.068,-0.00268936157226563,0,
00:00:00.0685,-0.00271224975585938,0,
00:00:00.069,-0.0027008056640625,0,
00:00:00.0695,-0.00268363952636719,0,
00:00:00.07,-0.00268936157226563,0,
00:00:00.0705,-0.00269508361816406,0,
00:00:00.071,-0.00269508361816406,0,
00:00:00.0715,-0.00269508361816406,0,
00:00:00.072,-0.0027008056640625,0,
00:00:00.0725,-0.00276374816894531,0,
00:00:00.073,-0.0027008056640625,0,
00:00:00.0735,-0.00268936157226563,0,
00:00:00.074,-0.00271224975585938,0,
00:00:00.0745,-0.00272941589355469,0,
00:00:00.075,-0.00275230407714844,0,
00:00:00.0755,-0.00276947021484375,0,
00:00:00.076,-0.00280380249023438,0,
00:00:00.0765,-0.00284957885742188,0,
00:00:00.077,-0.00289535522460938,0,
00:00:00.0775,-0.00292396545410156,0,
00:00:00.078,-0.00294113159179688,0,
00:00:00.0785,-0.00295829772949219,0,
00:00:00.079,-0.0029754638671875,0,
00:00:00.0795,-0.00298118591308594,0,
00:00:00.08,-0.00299263000488281,0,
00:00:00.0805,-0.00298118591308594,0,
00:00:00.081,-0.00298690795898438,0,
00:00:00.0815,-0.00295257568359375,0,
00:00:00.082,-0.00285530090332031,0,
00:00:00.0825,-0.00283241271972656,0,
00:00:00.083,-0.00280952453613281,0,
00:00:00.0835,-0.00277519226074219,0,
00:00:00.084,-0.00274085998535156,0,
00:00:00.0845,-0.0027008056640625,0,
00:00:00.085,-0.00268936157226563,0,
00:00:00.0855,-0.00268936157226563,0,
00:00:00.086,-0.00269508361816406,0,
00:00:00.0865,-0.00269508361816406,0,
00:00:00.087,-0.00268936157226563,0,
00:00:00.0875,-0.00268936157226563,0,
00:00:00.088,-0.00268936157226563,0,
00:00:00.0885,-0.00268936157226563,0,
00:00:00.089,-0.00269508361816406,0,
00:00:00.0895,-0.00270652770996094,0,
00:00:00.09,-0.00271797180175781,0,
00:00:00.0905,-0.00272369384765625,0,
00:00:00.091,-0.00273513793945313,0,
00:00:00.0915,-0.00274658203125,0,
00:00:00.092,-0.00276374816894531,0,
00:00:00.0925,-0.00278663635253906,0,
00:00:00.093,-0.00283241271972656,0,
00:00:00.0935,-0.00287818908691406,0,
00:00:00.094,-0.00291252136230469,0,
00:00:00.0945,-0.00294113159179688,0,
00:00:00.095,-0.00296401977539063,0,
00:00:00.0955,-0.00298118591308594,0,
00:00:00.096,-0.00298690795898438,0,
00:00:00.0965,-0.00299263000488281,0,
00:00:00.097,-0.00299263000488281,0,
00:00:00.0975,-0.00296401977539063,0,
00:00:00.098,-0.0029296875,0,
00:00:00.0985,-0.00290107727050781,0,
00:00:00.099,-0.00287246704101563,0,
00:00:00.0995,-0.002838134765625,0,
00:00:00.1,-0.0027923583984375,0,
00:00:00.1005,-0.00275230407714844,0,
00:00:00.101,-0.00271797180175781,0,
00:00:00.1015,-0.00269508361816406,0,
00:00:00.102,-0.00268936157226563,0,
00:00:00.1025,-0.00268936157226563,0,
00:00:00.103,-0.00268363952636719,0,
00:00:00.1035,-0.00267791748046875,0,
00:00:00.104,-0.00268363952636719,0,
00:00:00.1045,-0.00267791748046875,0,
00:00:00.105,-0.00267791748046875,0,
00:00:00.1055,-0.00268363952636719,0,
00:00:00.106,-0.00269508361816406,0,
00:00:00.1065,-0.00270652770996094,0,
00:00:00.107,-0.00272941589355469,0,
00:00:00.1075,-0.00278663635253906,0,
00:00:00.108,-0.00272941589355469,0,
00:00:00.1085,-0.00275802612304688,0,
00:00:00.109,-0.0027923583984375,0,
00:00:00.1095,-0.00278663635253906,0,
00:00:00.11,-0.00284957885742188,0,
00:00:00.1105,-0.00290107727050781,0,
00:00:00.111,-0.0029296875,0,
00:00:00.1115,-0.00295829772949219,0,
00:00:00.112,-0.00298118591308594,0,
00:00:00.1125,-0.00299263000488281,0,
00:00:00.113,-0.00299263000488281,0,
00:00:00.1135,-0.00299263000488281,0,
00:00:00.114,-0.00296974182128906,0,
00:00:00.1145,-0.00293540954589844,0,
00:00:00.115,-0.00290679931640625,0,
00:00:00.1155,-0.00287818908691406,0,
00:00:00.116,-0.00284385681152344,0,
00:00:00.1165,-0.00280380249023438,0,
00:00:00.117,-0.00276374816894531,0,
00:00:00.1175,-0.00272369384765625,0,
00:00:00.118,-0.00269508361816406,0,
00:00:00.1185,-0.00268936157226563,0,
00:00:00.119,-0.00268936157226563,0,
00:00:00.1195,-0.00268363952636719,0,
00:00:00.12,-0.00267791748046875,0,
00:00:00.1205,-0.00267791748046875,0,
00:00:00.121,-0.00267791748046875,0,
00:00:00.1215,-0.00267791748046875,0,
00:00:00.122,-0.00268363952636719,0,
00:00:00.1225,-0.00269508361816406,0,
00:00:00.123,-0.00271224975585938,0,
00:00:00.1235,-0.00272369384765625,0,
00:00:00.124,-0.00273513793945313,0,
00:00:00.1245,-0.00274658203125,0,
00:00:00.125,-0.00275802612304688,0,
00:00:00.1255,-0.00277519226074219,0,
00:00:00.126,-0.00280952453613281,0,
00:00:00.1265,-0.00285530090332031,0,
00:00:00.127,-0.00288963317871094,0,
00:00:00.1275,-0.00291824340820313,0,
00:00:00.128,-0.00294113159179688,0,
00:00:00.1285,-0.00295829772949219,0,
00:00:00.129,-0.0029754638671875,0,
00:00:00.1295,-0.00298690795898438,0,
00:00:00.13,-0.00299263000488281,0,
00:00:00.1305,-0.00298118591308594,0,
00:00:00.131,-0.00294685363769531,0,
00:00:00.1315,-0.00291252136230469,0,
00:00:00.132,-0.0028839111328125,0,
00:00:00.1325,-0.00285530090332031,0,
00:00:00.133,-0.00282096862792969,0,
00:00:00.1335,-0.00280952453613281,0,
00:00:00.134,-0.00277519226074219,0,
00:00:00.1345,-0.00268363952636719,0,
00:00:00.135,-0.00272941589355469,0,
00:00:00.1355,-0.00266647338867188,0,
00:00:00.136,-0.00264930725097656,0,
00:00:00.1365,-0.00266647338867188,0,
00:00:00.137,-0.00267791748046875,0,
00:00:00.1375,-0.00268363952636719,0,
00:00:00.138,-0.00268936157226563,0,
00:00:00.1385,-0.00272369384765625,0,
00:00:00.139,-0.00272941589355469,0,
00:00:00.1395,-0.00268936157226563,0,
00:00:00.14,-0.00276947021484375,0,
00:00:00.1405,-0.0027008056640625,0,
00:00:00.141,-0.00269508361816406,0,
00:00:00.1415,-0.00272941589355469,0,
00:00:00.142,-0.00276947021484375,0,
00:00:00.1425,-0.00286102294921875,0,
00:00:00.143,-0.00282669067382813,0,
00:00:00.1435,-0.00287246704101563,0,
00:00:00.144,-0.00290107727050781,0,
00:00:00.1445,-0.00291824340820313,0,
00:00:00.145,-0.00299263000488281,0,
00:00:00.1455,-0.00295257568359375,0,
00:00:00.146,-0.00294685363769531,0,
00:00:00.1465,-0.00296974182128906,0,
00:00:00.147,-0.0029754638671875,0,
00:00:00.1475,-0.00295257568359375,0,
00:00:00.148,-0.00292396545410156,0,
00:00:00.1485,-0.00290107727050781,0,
00:00:00.149,-0.00287818908691406,0,
00:00:00.1495,-0.00284957885742188,0,
00:00:00.15,-0.00280952453613281,0,
00:00:00.1505,-0.00276947021484375,0,
00:00:00.151,-0.00272369384765625,0,
00:00:00.1515,-0.00269508361816406,0,
00:00:00.152,-0.00268936157226563,0,
00:00:00.1525,-0.00268363952636719,0,
00:00:00.153,-0.00268363952636719,0,
00:00:00.1535,-0.00271797180175781,0,
00:00:00.154,-0.00271224975585938,0,
00:00:00.1545,-0.00263786315917969,0,
00:00:00.155,-0.00264358520507813,0,
00:00:00.1555,-0.002655029296875,0,
00:00:00.156,-0.00267219543457031,0,
00:00:00.1565,-0.00268936157226563,0,
00:00:00.157,-0.00270652770996094,0,
00:00:00.1575,-0.00271797180175781,0,
00:00:00.158,-0.00273513793945313,0,
00:00:00.1585,-0.00275230407714844,0,
00:00:00.159,-0.00278091430664063,0,
00:00:00.1595,-0.00283241271972656,0,
00:00:00.16,-0.00293540954589844,0,
00:00:00.1605,-0.00290107727050781,0,
00:00:00.161,-0.00290679931640625,0,
00:00:00.1615,-0.00294685363769531,0,
00:00:00.162,-0.00296974182128906,0,
00:00:00.1625,-0.00298690795898438,0,
00:00:00.163,-0.00299263000488281,0,
00:00:00.1635,-0.00301551818847656,0,
00:00:00.164,-0.0029754638671875,0,
00:00:00.1645,-0.00291824340820313,0,
00:00:00.165,-0.00288963317871094,0,
00:00:00.1655,-0.00286674499511719,0,
00:00:00.166,-0.002838134765625,0,
00:00:00.1665,-0.00279808044433594,0,
00:00:00.167,-0.00275802612304688,0,
00:00:00.1675,-0.00272369384765625,0,
00:00:00.168,-0.00268936157226563,0,
00:00:00.1685,-0.00272369384765625,0,
00:00:00.169,-0.00271797180175781,0,
00:00:00.1695,-0.00263786315917969,0,
00:00:00.17,-0.00264930725097656,0,
00:00:00.1705,-0.00266075134277344,0,
00:00:00.171,-0.00266647338867188,0,
00:00:00.1715,-0.00267219543457031,0,
00:00:00.172,-0.00267219543457031,0,
00:00:00.1725,-0.00268936157226563,0,
00:00:00.173,-0.0027008056640625,0,
00:00:00.1735,-0.00275230407714844,0,
00:00:00.174,-0.00275802612304688,0,
00:00:00.1745,-0.00268936157226563,0,
00:00:00.175,-0.00271797180175781,0,
00:00:00.1755,-0.00275230407714844,0,
00:00:00.176,-0.00282669067382813,0,
00:00:00.1765,-0.00287818908691406,0,
00:00:00.177,-0.00285530090332031,0,
00:00:00.1775,-0.00288963317871094,0,
00:00:00.178,-0.00292396545410156,0,
00:00:00.1785,-0.00294113159179688,0,
00:00:00.179,-0.00295257568359375,0,
00:00:00.1795,-0.00296401977539063,0,
00:00:00.18,-0.00296974182128906,0,
00:00:00.1805,-0.00295257568359375,0,
00:00:00.181,-0.00292396545410156,0,
00:00:00.1815,-0.00288963317871094,0,
00:00:00.182,-0.00286102294921875,0,
00:00:00.1825,-0.002838134765625,0,
00:00:00.183,-0.00280380249023438,0,
00:00:00.1835,-0.00276374816894531,0,
00:00:00.184,-0.00272941589355469,0,
00:00:00.1845,-0.00270652770996094,0,
00:00:00.185,-0.00275802612304688,0,
00:00:00.1855,-0.00267219543457031,0,
00:00:00.186,-0.00264358520507813,0,
00:00:00.1865,-0.002655029296875,0,
00:00:00.187,-0.00266075134277344,0,
00:00:00.1875,-0.00266075134277344,0,
00:00:00.188,-0.00266075134277344,0,
00:00:00.1885,-0.00266075134277344,0,
00:00:00.189,-0.00266647338867188,0,
00:00:00.1895,-0.00267791748046875,0,
00:00:00.19,-0.00268936157226563,0,
00:00:00.1905,-0.0027008056640625,0,
00:00:00.191,-0.00270652770996094,0,
00:00:00.1915,-0.00272369384765625,0,
00:00:00.192,-0.00274658203125,0,
00:00:00.1925,-0.00277519226074219,0,
00:00:00.193,-0.00282669067382813,0,
00:00:00.1935,-0.00290107727050781,0,
00:00:00.194,-0.00293540954589844,0,
00:00:00.1945,-0.00290107727050781,0,
00:00:00.195,-0.0029296875,0,
00:00:00.1955,-0.00295829772949219,0,
00:00:00.196,-0.0029754638671875,0,
00:00:00.1965,-0.00298118591308594,0,
00:00:00.197,-0.0029754638671875,0,
00:00:00.1975,-0.00296401977539063,0,
00:00:00.198,-0.00288963317871094,0,
00:00:00.1985,-0.00286102294921875,0,
00:00:00.199,-0.002838134765625,0,
00:00:00.1995,-0.00280952453613281,0,
00:00:00.2,-0.00276374816894531,0,
00:00:00.2005,-0.00272941589355469,0,
00:00:00.201,-0.00268936157226563,0,
00:00:00.2015,-0.00267219543457031,0,
00:00:00.202,-0.00266647338867188,0,
00:00:00.2025,-0.00266075134277344,0,
00:00:00.203,-0.00266075134277344,0,
00:00:00.2035,-0.00266075134277344,0,
00:00:00.204,-0.00266075134277344,0,
00:00:00.2045,-0.00266075134277344,0,
00:00:00.205,-0.00266075134277344,0,
00:00:00.2055,-0.00266647338867188,0,
00:00:00.206,-0.00267791748046875,0,
00:00:00.2065,-0.00268936157226563,0,
00:00:00.207,-0.0027008056640625,0,
00:00:00.2075,-0.00271224975585938,0,
00:00:00.208,-0.00272941589355469,0,
00:00:00.2085,-0.00274085998535156,0,
00:00:00.209,-0.00276374816894531,0,
00:00:00.2095,-0.00280952453613281,0,
00:00:00.21,-0.00284957885742188,0,
00:00:00.2105,-0.0028839111328125,0,
00:00:00.211,-0.00290679931640625,0,
00:00:00.2115,-0.0029296875,0,
00:00:00.212,-0.00295257568359375,0,
00:00:00.2125,-0.00296401977539063,0,
00:00:00.213,-0.00296974182128906,0,
00:00:00.2135,-0.00296974182128906,0,
00:00:00.214,-0.00294113159179688,0,
00:00:00.2145,-0.00290679931640625,0,
00:00:00.215,-0.00287818908691406,0,
00:00:00.2155,-0.00284385681152344,0,
00:00:00.216,-0.00280952453613281,0,
00:00:00.2165,-0.00277519226074219,0,
00:00:00.217,-0.00273513793945313,0,
00:00:00.2175,-0.00269508361816406,0,
00:00:00.218,-0.00266075134277344,0,
00:00:00.2185,-0.00266075134277344,0,
00:00:00.219,-0.00266075134277344,0,
00:00:00.2195,-0.00266075134277344,0,
00:00:00.22,-0.00266075134277344,0,
00:00:00.2205,-0.002655029296875,0,
00:00:00.221,-0.002655029296875,0,
00:00:00.2215,-0.002655029296875,0,
00:00:00.222,-0.00266075134277344,0,
00:00:00.2225,-0.00266647338867188,0,
00:00:00.223,-0.00267791748046875,0,
00:00:00.2235,-0.00272369384765625,0,
00:00:00.224,-0.00273513793945313,0,
00:00:00.2245,-0.00268936157226563,0,
00:00:00.225,-0.00275802612304688,0,
00:00:00.2255,-0.00272369384765625,0,
00:00:00.226,-0.00274658203125,0,
00:00:00.2265,-0.00280952453613281,0,
00:00:00.227,-0.00285530090332031,0,
00:00:00.2275,-0.00289535522460938,0,
00:00:00.228,-0.00292396545410156,0,
00:00:00.2285,-0.00294113159179688,0,
00:00:00.229,-0.00295829772949219,0,
00:00:00.2295,-0.00296401977539063,0,
00:00:00.23,-0.00296401977539063,0,
00:00:00.2305,-0.00294685363769531,0,
00:00:00.231,-0.00291252136230469,0,
00:00:00.2315,-0.00287818908691406,0,
00:00:00.232,-0.00284957885742188,0,
00:00:00.2325,-0.00282096862792969,0,
00:00:00.233,-0.00278663635253906,0,
00:00:00.2335,-0.00274085998535156,0,
00:00:00.234,-0.00270652770996094,0,
00:00:00.2345,-0.00266647338867188,0,
00:00:00.235,-0.00266075134277344,0,
00:00:00.2355,-0.00266075134277344,0,
00:00:00.236,-0.002655029296875,0,
00:00:00.2365,-0.002655029296875,0,
00:00:00.237,-0.002655029296875,0,
00:00:00.2375,-0.00264930725097656,0,
00:00:00.238,-0.00264930725097656,0,
00:00:00.2385,-0.00264930725097656,0,
00:00:00.239,-0.00266075134277344,0,
00:00:00.2395,-0.00267791748046875,0,
00:00:00.24,-0.00268936157226563,0,
00:00:00.2405,-0.0027008056640625,0,
00:00:00.241,-0.00270652770996094,0,
00:00:00.2415,-0.00272369384765625,0,
00:00:00.242,-0.00274085998535156,0,
00:00:00.2425,-0.00276374816894531,0,
00:00:00.243,-0.00280952453613281,0,
00:00:00.2435,-0.00284957885742188,0,
00:00:00.244,-0.0028839111328125,0,
00:00:00.2445,-0.00290107727050781,0,
00:00:00.245,-0.00291824340820313,0,
00:00:00.2455,-0.00293540954589844,0,
00:00:00.246,-0.00294685363769531,0,
00:00:00.2465,-0.00295257568359375,0,
00:00:00.247,-0.00294685363769531,0,
00:00:00.2475,-0.00291824340820313,0,
00:00:00.248,-0.0028839111328125,0,
00:00:00.2485,-0.00285530090332031,0,
00:00:00.249,-0.00282669067382813,0,
00:00:00.2495,-0.00279808044433594,0,
00:00:00.25,-0.00280952453613281,0,
00:00:00.2505,-0.00270652770996094,0,
00:00:00.251,-0.00268363952636719,0,
00:00:00.2515,-0.00267219543457031,0,
00:00:00.252,-0.00261497497558594,0,
00:00:00.2525,-0.00263214111328125,0,
00:00:00.253,-0.00264358520507813,0,
00:00:00.2535,-0.00264930725097656,0,
00:00:00.254,-0.00264930725097656,0,
00:00:00.2545,-0.002655029296875,0,
00:00:00.255,-0.002655029296875,0,
00:00:00.2555,-0.00266075134277344,0,
00:00:00.256,-0.00267219543457031,0,
00:00:00.2565,-0.00268363952636719,0,
00:00:00.257,-0.00269508361816406,0,
00:00:00.2575,-0.0027008056640625,0,
00:00:00.258,-0.00271797180175781,0,
00:00:00.2585,-0.00273513793945313,0,
00:00:00.259,-0.00275802612304688,0,
00:00:00.2595,-0.00279808044433594,0,
00:00:00.26,-0.002838134765625,0,
00:00:00.2605,-0.00286674499511719,0,
00:00:00.261,-0.00289535522460938,0,
00:00:00.2615,-0.00291824340820313,0,
00:00:00.262,-0.00293540954589844,0,
00:00:00.2625,-0.00294685363769531,0,
00:00:00.263,-0.00295257568359375,0,
00:00:00.2635,-0.00295829772949219,0,
00:00:00.264,-0.00294113159179688,0,
00:00:00.2645,-0.00290679931640625,0,
00:00:00.265,-0.00287246704101563,0,
00:00:00.2655,-0.00284385681152344,0,
00:00:00.266,-0.00281524658203125,0,
00:00:00.2665,-0.00277519226074219,0,
00:00:00.267,-0.00273513793945313,0,
00:00:00.2675,-0.00269508361816406,0,
00:00:00.268,-0.00266075134277344,0,
00:00:00.2685,-0.002655029296875,0,
00:00:00.269,-0.002655029296875,0,
00:00:00.2695,-0.00266075134277344,0,
00:00:00.27,-0.00271224975585938,0,
00:00:00.2705,-0.00263786315917969,0,
00:00:00.271,-0.00264930725097656,0,
00:00:00.2715,-0.00266075134277344,0,
00:00:00.272,-0.00260353088378906,0,
00:00:00.2725,-0.00262641906738281,0,
00:00:00.273,-0.002655029296875,0,
00:00:00.2735,-0.00267791748046875,0,
00:00:00.274,-0.00269508361816406,0,
00:00:00.2745,-0.00271224975585938,0,
00:00:00.275,-0.00273513793945313,0,
00:00:00.2755,-0.00275802612304688,0,
00:00:00.276,-0.00283241271972656,0,
00:00:00.2765,-0.00287246704101563,0,
00:00:00.277,-0.00284957885742188,0,
00:00:00.2775,-0.00294113159179688,0,
00:00:00.278,-0.00290107727050781,0,
00:00:00.2785,-0.00294113159179688,0,
00:00:00.279,-0.00299263000488281,0,
00:00:00.2795,-0.00290679931640625,0,
00:00:00.28,-0.00291824340820313,0,
00:00:00.2805,-0.00291824340820313,0,
00:00:00.281,-0.00289535522460938,0,
00:00:00.2815,-0.00287246704101563,0,
00:00:00.282,-0.00286102294921875,0,
00:00:00.2825,-0.00288963317871094,0,
00:00:00.283,-0.0027923583984375,0,
00:00:00.2835,-0.0027008056640625,0,
00:00:00.284,-0.00267791748046875,0,
00:00:00.2845,-0.00266075134277344,0,
00:00:00.285,-0.00271224975585938,0,
00:00:00.2855,-0.00264358520507813,0,
00:00:00.286,-0.00261497497558594,0,
00:00:00.2865,-0.00262641906738281,0,
00:00:00.287,-0.00263214111328125,0,
00:00:00.2875,-0.00263786315917969,0,
00:00:00.288,-0.00264358520507813,0,
00:00:00.2885,-0.00268363952636719,0,
00:00:00.289,-0.0027008056640625,0,
00:00:00.2895,-0.00264358520507813,0,
00:00:00.29,-0.00266647338867188,0,
00:00:00.2905,-0.00268936157226563,0,
00:00:00.291,-0.00270652770996094,0,
00:00:00.2915,-0.00272369384765625,0,
00:00:00.292,-0.00274085998535156,0,
00:00:00.2925,-0.00276947021484375,0,
00:00:00.293,-0.00281524658203125,0,
00:00:00.2935,-0.00285530090332031,0,
00:00:00.294,-0.00288963317871094,0,
00:00:00.2945,-0.00291252136230469,0,
00:00:00.295,-0.0029296875,0,
00:00:00.2955,-0.00294685363769531,0,
00:00:00.296,-0.00295257568359375,0,
00:00:00.2965,-0.00295829772949219,0,
00:00:00.297,-0.00295829772949219,0,
00:00:00.2975,-0.00298118591308594,0,
00:00:00.298,-0.00286102294921875,0,
00:00:00.2985,-0.00280952453613281,0,
00:00:00.299,-0.0027923583984375,0,
00:00:00.2995,-0.00276947021484375,0,
00:00:00.3,-0.00273513793945313,0,
00:00:00.3005,-0.0027008056640625,0,
00:00:00.301,-0.00268363952636719,0,
00:00:00.3015,-0.002655029296875,0,
00:00:00.302,-0.00263214111328125,0,
00:00:00.3025,-0.00263786315917969,0,
00:00:00.303,-0.00263786315917969,0,
00:00:00.3035,-0.00264358520507813,0,
00:00:00.304,-0.00264930725097656,0,
00:00:00.3045,-0.00266075134277344,0,
00:00:00.305,-0.00271797180175781,0,
00:00:00.3055,-0.002655029296875,0,
00:00:00.306,-0.00264358520507813,0,
00:00:00.3065,-0.00267219543457031,0,
00:00:00.307,-0.00268936157226563,0,
00:00:00.3075,-0.0027008056640625,0,
00:00:00.308,-0.00271797180175781,0,
00:00:00.3085,-0.00273513793945313,0,
00:00:00.309,-0.00275802612304688,0,
00:00:00.3095,-0.00279808044433594,0,
00:00:00.31,-0.00284385681152344,0,
00:00:00.3105,-0.00287818908691406,0,
00:00:00.311,-0.00290107727050781,0,
00:00:00.3115,-0.00292396545410156,0,
00:00:00.312,-0.00293540954589844,0,
00:00:00.3125,-0.00294685363769531,0,
00:00:00.313,-0.00295829772949219,0,
00:00:00.3135,-0.00299263000488281,0,
00:00:00.314,-0.00296401977539063,0,
00:00:00.3145,-0.00284957885742188,0,
00:00:00.315,-0.00282669067382813,0,
00:00:00.3155,-0.00280952453613281,0,
00:00:00.316,-0.00278663635253906,0,
00:00:00.3165,-0.00275230407714844,0,
00:00:00.317,-0.00272369384765625,0,
00:00:00.3175,-0.00268363952636719,0,
00:00:00.318,-0.002655029296875,0,
00:00:00.3185,-0.00264930725097656,0,
00:00:00.319,-0.00264930725097656,0,
00:00:00.3195,-0.00264930725097656,0,
00:00:00.32,-0.00269508361816406,0,
00:00:00.3205,-0.00263214111328125,0,
00:00:00.321,-0.00261497497558594,0,
00:00:00.3215,-0.00262641906738281,0,
00:00:00.322,-0.00263786315917969,0,
00:00:00.3225,-0.002655029296875,0,
00:00:00.323,-0.00267219543457031,0,
00:00:00.3235,-0.00268363952636719,0,
00:00:00.324,-0.00268936157226563,0,
00:00:00.3245,-0.0027008056640625,0,
00:00:00.325,-0.00271797180175781,0,
00:00:00.3255,-0.00274085998535156,0,
00:00:00.326,-0.00277519226074219,0,
00:00:00.3265,-0.00282096862792969,0,
00:00:00.327,-0.00285530090332031,0,
00:00:00.3275,-0.0028839111328125,0,
00:00:00.328,-0.00290679931640625,0,
00:00:00.3285,-0.00292396545410156,0,
00:00:00.329,-0.00293540954589844,0,
00:00:00.3295,-0.00294113159179688,0,
00:00:00.33,-0.00294113159179688,0,
00:00:00.3305,-0.00292396545410156,0,
00:00:00.331,-0.00288963317871094,0,
00:00:00.3315,-0.00286102294921875,0,
00:00:00.332,-0.002838134765625,0,
00:00:00.3325,-0.00280952453613281,0,
00:00:00.333,-0.00276947021484375,0,
00:00:00.3335,-0.00273513793945313,0,
00:00:00.334,-0.00269508361816406,0,
00:00:00.3345,-0.00266075134277344,0,
00:00:00.335,-0.00264930725097656,0,
00:00:00.3355,-0.00264930725097656,0,
00:00:00.336,-0.00264358520507813,0,
00:00:00.3365,-0.00263786315917969,0,
00:00:00.337,-0.00263786315917969,0,
00:00:00.3375,-0.00263786315917969,0,
00:00:00.338,-0.00263786315917969,0,
00:00:00.3385,-0.00264358520507813,0,
00:00:00.339,-0.00264930725097656,0,
00:00:00.3395,-0.00266075134277344,0,
00:00:00.34,-0.00266647338867188,0,
00:00:00.3405,-0.00267791748046875,0,
00:00:00.341,-0.00268936157226563,0,
00:00:00.3415,-0.00270652770996094,0,
00:00:00.342,-0.00272369384765625,0,
00:00:00.3425,-0.00275230407714844,0,
00:00:00.343,-0.00280380249023438,0,
00:00:00.3435,-0.00284385681152344,0,
00:00:00.344,-0.00287246704101563,0,
00:00:00.3445,-0.00290679931640625,0,
00:00:00.345,-0.0029754638671875,0,
00:00:00.3455,-0.00292396545410156,0,
00:00:00.346,-0.00294685363769531,0,
00:00:00.3465,-0.00295829772949219,0,
00:00:00.347,-0.00289535522460938,0,
00:00:00.3475,-0.00287818908691406,0,
00:00:00.348,-0.00285530090332031,0,
00:00:00.3485,-0.00283241271972656,0,
00:00:00.349,-0.00280952453613281,0,
00:00:00.3495,-0.00277519226074219,0,
00:00:00.35,-0.00272941589355469,0,
00:00:00.3505,-0.00268936157226563,0,
00:00:00.351,-0.002655029296875,0,
00:00:00.3515,-0.00263786315917969,0,
00:00:00.352,-0.00263786315917969,0,
00:00:00.3525,-0.00263786315917969,0,
00:00:00.353,-0.00263214111328125,0,
00:00:00.3535,-0.00262641906738281,0,
00:00:00.354,-0.00262641906738281,0,
00:00:00.3545,-0.00262641906738281,0,
00:00:00.355,-0.00262641906738281,0,
00:00:00.3555,-0.00263214111328125,0,
00:00:00.356,-0.00268363952636719,0,
00:00:00.3565,-0.0027008056640625,0,
00:00:00.357,-0.00264358520507813,0,
00:00:00.3575,-0.00272369384765625,0,
00:00:00.358,-0.00267791748046875,0,
00:00:00.3585,-0.00268936157226563,0,
00:00:00.359,-0.00272941589355469,0,
00:00:00.3595,-0.00278663635253906,0,
00:00:00.36,-0.002838134765625,0,
00:00:00.3605,-0.00287246704101563,0,
00:00:00.361,-0.00293540954589844,0,
00:00:00.3615,-0.00295829772949219,0,
00:00:00.362,-0.00289535522460938,0,
00:00:00.3625,-0.00291824340820313,0,
00:00:00.363,-0.00293540954589844,0,
00:00:00.3635,-0.00293540954589844,0,
00:00:00.364,-0.00290679931640625,0,
00:00:00.3645,-0.0028839111328125,0,
00:00:00.365,-0.00287246704101563,0,
00:00:00.3655,-0.00280952453613281,0,
00:00:00.366,-0.00277519226074219,0,
00:00:00.3665,-0.00274085998535156,0,
00:00:00.367,-0.00270652770996094,0,
00:00:00.3675,-0.00266647338867188,0,
00:00:00.368,-0.00264358520507813,0,
00:00:00.3685,-0.00267791748046875,0,
00:00:00.369,-0.00267791748046875,0,
00:00:00.3695,-0.00260353088378906,0,
00:00:00.37,-0.00261497497558594,0,
00:00:00.3705,-0.00262641906738281,0,
00:00:00.371,-0.00263786315917969,0,
00:00:00.3715,-0.00264358520507813,0,
00:00:00.372,-0.00264930725097656,0,
00:00:00.3725,-0.00266075134277344,0,
00:00:00.373,-0.00267219543457031,0,
00:00:00.3735,-0.00267791748046875,0,
00:00:00.374,-0.00268936157226563,0,
00:00:00.3745,-0.00269508361816406,0,
00:00:00.375,-0.00271797180175781,0,
00:00:00.3755,-0.00273513793945313,0,
00:00:00.376,-0.00277519226074219,0,
00:00:00.3765,-0.00282096862792969,0,
00:00:00.377,-0.00286102294921875,0,
00:00:00.3775,-0.00293540954589844,0,
00:00:00.378,-0.00289535522460938,0,
00:00:00.3785,-0.00289535522460938,0,
00:00:00.379,-0.00291824340820313,0,
00:00:00.3795,-0.00293540954589844,0,
00:00:00.38,-0.00294113159179688,0,
00:00:00.3805,-0.00292396545410156,0,
00:00:00.381,-0.00288963317871094,0,
00:00:00.3815,-0.00285530090332031,0,
00:00:00.382,-0.00282669067382813,0,
00:00:00.3825,-0.00279808044433594,0,
00:00:00.383,-0.00276374816894531,0,
00:00:00.3835,-0.00272369384765625,0,
00:00:00.384,-0.00268363952636719,0,
00:00:00.3845,-0.00264358520507813,0,
00:00:00.385,-0.00263786315917969,0,
00:00:00.3855,-0.00263786315917969,0,
00:00:00.386,-0.00267219543457031,0,
00:00:00.3865,-0.00267219543457031,0,
00:00:00.387,-0.00259780883789063,0,
00:00:00.3875,-0.00260353088378906,0,
00:00:00.388,-0.00261497497558594,0,
00:00:00.3885,-0.00262641906738281,0,
00:00:00.389,-0.00264358520507813,0,
00:00:00.3895,-0.00266075134277344,0,
00:00:00.39,-0.00266647338867188,0,
00:00:00.3905,-0.00267791748046875,0,
00:00:00.391,-0.00268936157226563,0,
00:00:00.3915,-0.00270652770996094,0,
00:00:00.392,-0.00272941589355469,0,
00:00:00.3925,-0.00280952453613281,0,
00:00:00.393,-0.00278663635253906,0,
00:00:00.3935,-0.00280952453613281,0,
00:00:00.394,-0.00284385681152344,0,
00:00:00.3945,-0.00287246704101563,0,
00:00:00.395,-0.00289535522460938,0,
00:00:00.3955,-0.00291252136230469,0,
00:00:00.396,-0.00294685363769531,0,
00:00:00.3965,-0.00294113159179688,0,
00:00:00.397,-0.00291252136230469,0,
00:00:00.3975,-0.00288963317871094,0,
00:00:00.398,-0.00286102294921875,0,
00:00:00.3985,-0.00283241271972656,0,
00:00:00.399,-0.00279808044433594,0,
00:00:00.3995,-0.00276947021484375,0,
00:00:00.4,-0.00278091430664063,0,
00:00:00.4005,-0.00267791748046875,0,
00:00:00.401,-0.00261497497558594,0,
00:00:00.4015,-0.00261497497558594,0,
00:00:00.402,-0.00262069702148438,0,
00:00:00.4025,-0.00262641906738281,0,
00:00:00.403,-0.00262641906738281,0,
00:00:00.4035,-0.00262641906738281,0,
00:00:00.404,-0.00262641906738281,0,
00:00:00.4045,-0.00262641906738281,0,
00:00:00.405,-0.00262069702148438,0,
00:00:00.4055,-0.00263214111328125,0,
00:00:00.406,-0.00264930725097656,0,
00:00:00.4065,-0.002655029296875,0,
00:00:00.407,-0.00266647338867188,0,
00:00:00.4075,-0.00267219543457031,0,
00:00:00.408,-0.00268363952636719,0,
00:00:00.4085,-0.00273513793945313,0,
00:00:00.409,-0.00275802612304688,0,
00:00:00.4095,-0.00273513793945313,0,
00:00:00.41,-0.00278091430664063,0,
00:00:00.4105,-0.00282096862792969,0,
00:00:00.411,-0.00284957885742188,0,
00:00:00.4115,-0.00287818908691406,0,
00:00:00.412,-0.00289535522460938,0,
00:00:00.4125,-0.00291252136230469,0,
00:00:00.413,-0.0029296875,0,
00:00:00.4135,-0.0029296875,0,
00:00:00.414,-0.00290679931640625,0,
00:00:00.4145,-0.00287246704101563,0,
00:00:00.415,-0.00284957885742188,0,
00:00:00.4155,-0.00282096862792969,0,
00:00:00.416,-0.00278091430664063,0,
00:00:00.4165,-0.00274085998535156,0,
00:00:00.417,-0.00271224975585938,0,
00:00:00.4175,-0.00272369384765625,0,
00:00:00.418,-0.00262069702148438,0,
00:00:00.4185,-0.00259208679199219,0,
00:00:00.419,-0.00260353088378906,0,
00:00:00.4195,-0.00260353088378906,0,
00:00:00.42,-0.0026092529296875,0,
00:00:00.4205,-0.00261497497558594,0,
00:00:00.421,-0.00261497497558594,0,
00:00:00.4215,-0.00261497497558594,0,
00:00:00.422,-0.00262069702148438,0,
00:00:00.4225,-0.00263786315917969,0,
00:00:00.423,-0.00264358520507813,0,
00:00:00.4235,-0.002655029296875,0,
00:00:00.424,-0.00266075134277344,0,
00:00:00.4245,-0.00267791748046875,0,
00:00:00.425,-0.00269508361816406,0,
00:00:00.4255,-0.00271797180175781,0,
00:00:00.426,-0.0027923583984375,0,
00:00:00.4265,-0.00283241271972656,0,
00:00:00.427,-0.00280380249023438,0,
00:00:00.4275,-0.002838134765625,0,
00:00:00.428,-0.00287818908691406,0,
00:00:00.4285,-0.00290107727050781,0,
00:00:00.429,-0.00291252136230469,0,
00:00:00.4295,-0.0029296875,0,
00:00:00.43,-0.00295829772949219,0,
00:00:00.4305,-0.00289535522460938,0,
00:00:00.431,-0.00286102294921875,0,
00:00:00.4315,-0.00283241271972656,0,
00:00:00.432,-0.00281524658203125,0,
00:00:00.4325,-0.00284385681152344,0,
00:00:00.433,-0.00272369384765625,0,
00:00:00.4335,-0.00266647338867188,0,
00:00:00.434,-0.00264358520507813,0,
00:00:00.4345,-0.00262069702148438,0,
00:00:00.435,-0.00262641906738281,0,
00:00:00.4355,-0.00262641906738281,0,
00:00:00.436,-0.00262069702148438,0,
00:00:00.4365,-0.00261497497558594,0,
00:00:00.437,-0.00261497497558594,0,
00:00:00.4375,-0.00261497497558594,0,
00:00:00.438,-0.00261497497558594,0,
00:00:00.4385,-0.00262069702148438,0,
00:00:00.439,-0.00263214111328125,0,
00:00:00.4395,-0.00264358520507813,0,
00:00:00.44,-0.00264930725097656,0,
00:00:00.4405,-0.00266075134277344,0,
00:00:00.441,-0.00267219543457031,0,
00:00:00.4415,-0.00268936157226563,0,
00:00:00.442,-0.00270652770996094,0,
00:00:00.4425,-0.00274085998535156,0,
00:00:00.443,-0.00278663635253906,0,
00:00:00.4435,-0.00282669067382813,0,
00:00:00.444,-0.00285530090332031,0,
00:00:00.4445,-0.00287818908691406,0,
00:00:00.445,-0.00289535522460938,0,
00:00:00.4455,-0.00291252136230469,0,
00:00:00.446,-0.00291824340820313,0,
00:00:00.4465,-0.00292396545410156,0,
00:00:00.447,-0.00290679931640625,0,
00:00:00.4475,-0.00287818908691406,0,
00:00:00.448,-0.00284385681152344,0,
00:00:00.4485,-0.00280952453613281,0,
00:00:00.449,-0.00278663635253906,0,
00:00:00.4495,-0.00275230407714844,0,
00:00:00.45,-0.00271224975585938,0,
00:00:00.4505,-0.00267219543457031,0,
00:00:00.451,-0.00263214111328125,0,
00:00:00.4515,-0.00262069702148438,0,
00:00:00.452,-0.00262069702148438,0,
00:00:00.4525,-0.00261497497558594,0,
00:00:00.453,-0.00261497497558594,0,
00:00:00.4535,-0.0026092529296875,0,
00:00:00.454,-0.0026092529296875,0,
00:00:00.4545,-0.0026092529296875,0,
00:00:00.455,-0.00261497497558594,0,
00:00:00.4555,-0.00262641906738281,0,
00:00:00.456,-0.00263786315917969,0,
00:00:00.4565,-0.00264358520507813,0,
00:00:00.457,-0.00266075134277344,0,
00:00:00.4575,-0.00271797180175781,0,
00:00:00.458,-0.00266647338867188,0,
00:00:00.4585,-0.00270652770996094,0,
00:00:00.459,-0.00274658203125,0,
00:00:00.4595,-0.00271797180175781,0,
00:00:00.46,-0.00277519226074219,0,
00:00:00.4605,-0.00282096862792969,0,
00:00:00.461,-0.00285530090332031,0,
00:00:00.4615,-0.00287818908691406,0,
00:00:00.462,-0.00289535522460938,0,
00:00:00.4625,-0.00290679931640625,0,
00:00:00.463,-0.00291252136230469,0,
00:00:00.4635,-0.00290107727050781,0,
00:00:00.464,-0.00287246704101563,0,
00:00:00.4645,-0.002838134765625,0,
00:00:00.465,-0.00280380249023438,0,
00:00:00.4655,-0.00277519226074219,0,
00:00:00.466,-0.00274658203125,0,
00:00:00.4665,-0.00270652770996094,0,
00:00:00.467,-0.00267219543457031,0,
00:00:00.4675,-0.00263214111328125,0,
00:00:00.468,-0.00261497497558594,0,
00:00:00.4685,-0.00261497497558594,0,
00:00:00.469,-0.00262069702148438,0,
00:00:00.4695,-0.00262069702148438,0,
00:00:00.47,-0.00262641906738281,0,
00:00:00.4705,-0.00262641906738281,0,
00:00:00.471,-0.00263214111328125,0,
00:00:00.4715,-0.00263214111328125,0,
00:00:00.472,-0.00262641906738281,0,
00:00:00.4725,-0.00263786315917969,0,
00:00:00.473,-0.00264358520507813,0,
00:00:00.4735,-0.00264358520507813,0,
00:00:00.474,-0.00264930725097656,0,
00:00:00.4745,-0.00266647338867188,0,
00:00:00.475,-0.00274085998535156,0,
00:00:00.4755,-0.00268363952636719,0,
00:00:00.476,-0.00274658203125,0,
00:00:00.4765,-0.00280380249023438,0,
00:00:00.477,-0.00276947021484375,0,
00:00:00.4775,-0.00282096862792969,0,
00:00:00.478,-0.00286674499511719,0,
00:00:00.4785,-0.00294113159179688,0,
00:00:00.479,-0.00295829772949219,0,
00:00:00.4795,-0.00288963317871094,0,
00:00:00.48,-0.00289535522460938,0,
00:00:00.4805,-0.0028839111328125,0,
00:00:00.481,-0.00288963317871094,0,
00:00:00.4815,-0.00286102294921875,0,
00:00:00.482,-0.00276374816894531,0,
00:00:00.4825,-0.00274658203125,0,
00:00:00.483,-0.00271797180175781,0,
00:00:00.4835,-0.00268936157226563,0,
00:00:00.484,-0.002655029296875,0,
00:00:00.4845,-0.00261497497558594,0,
00:00:00.485,-0.00261497497558594,0,
00:00:00.4855,-0.00261497497558594,0,
00:00:00.486,-0.0026092529296875,0,
00:00:00.4865,-0.0026092529296875,0,
00:00:00.487,-0.0026092529296875,0,
00:00:00.4875,-0.0026092529296875,0,
00:00:00.488,-0.0026092529296875,0,
00:00:00.4885,-0.0026092529296875,0,
00:00:00.489,-0.00262069702148438,0,
00:00:00.4895,-0.00263786315917969,0,
00:00:00.49,-0.00270652770996094,0,
00:00:00.4905,-0.00263214111328125,0,
00:00:00.491,-0.00262069702148438,0,
00:00:00.4915,-0.002655029296875,0,
00:00:00.492,-0.00268363952636719,0,
00:00:00.4925,-0.00272369384765625,0,
00:00:00.493,-0.00278091430664063,0,
00:00:00.4935,-0.00284385681152344,0,
00:00:00.494,-0.00285530090332031,0,
00:00:00.4945,-0.00285530090332031,0,
00:00:00.495,-0.0028839111328125,0,
00:00:00.4955,-0.00290679931640625,0,
00:00:00.496,-0.00296401977539063,0,
00:00:00.4965,-0.00296974182128906,0,
00:00:00.497,-0.00287246704101563,0,
00:00:00.4975,-0.00284957885742188,0,
00:00:00.498,-0.00282669067382813,0,
00:00:00.4985,-0.00280380249023438,0,
00:00:00.499,-0.00277519226074219,0,
00:00:00.4995,-0.00274085998535156,0,
00:00:00.5,-0.0027008056640625,0,
00:00:00.5005,-0.00266647338867188,0,
00:00:00.501,-0.00262641906738281,0,
00:00:00.5015,-0.00261497497558594,0,
00:00:00.502,-0.00261497497558594,0,
00:00:00.5025,-0.0026092529296875,0,
00:00:00.503,-0.0026092529296875,0,
00:00:00.5035,-0.00260353088378906,0,
00:00:00.504,-0.00260353088378906,0,
00:00:00.5045,-0.00261497497558594,0,
00:00:00.505,-0.00266647338867188,0,
00:00:00.5055,-0.0026092529296875,0,
00:00:00.506,-0.00259780883789063,0,
00:00:00.5065,-0.00262069702148438,0,
00:00:00.507,-0.00264358520507813,0,
00:00:00.5075,-0.002655029296875,0,
00:00:00.508,-0.00267791748046875,0,
00:00:00.5085,-0.00269508361816406,0,
00:00:00.509,-0.00272369384765625,0,
00:00:00.5095,-0.00276374816894531,0,
00:00:00.51,-0.00280380249023438,0,
00:00:00.5105,-0.00283241271972656,0,
00:00:00.511,-0.00285530090332031,0,
00:00:00.5115,-0.00287818908691406,0,
00:00:00.512,-0.00289535522460938,0,
00:00:00.5125,-0.00290679931640625,0,
00:00:00.513,-0.00291252136230469,0,
00:00:00.5135,-0.00293540954589844,0,
00:00:00.514,-0.00290679931640625,0,
00:00:00.5145,-0.00281524658203125,0,
00:00:00.515,-0.00279808044433594,0,
00:00:00.5155,-0.00278091430664063,0,
00:00:00.516,-0.00275230407714844,0,
00:00:00.5165,-0.00271797180175781,0,
00:00:00.517,-0.00268363952636719,0,
00:00:00.5175,-0.00264358520507813,0,
00:00:00.518,-0.00262641906738281,0,
00:00:00.5185,-0.00262069702148438,0,
00:00:00.519,-0.00262069702148438,0,
00:00:00.5195,-0.00262641906738281,0,
00:00:00.52,-0.00267791748046875,0,
00:00:00.5205,-0.00259780883789063,0,
00:00:00.521,-0.00257492065429688,0,
00:00:00.5215,-0.00258636474609375,0,
00:00:00.522,-0.00260353088378906,0,
00:00:00.5225,-0.00262641906738281,0,
00:00:00.523,-0.00263786315917969,0,
00:00:00.5235,-0.00267219543457031,0,
00:00:00.524,-0.00266647338867188,0,
00:00:00.5245,-0.00266075134277344,0,
00:00:00.525,-0.00268363952636719,0,
00:00:00.5255,-0.00271797180175781,0,
00:00:00.526,-0.00275802612304688,0,
00:00:00.5265,-0.00280380249023438,0,
00:00:00.527,-0.00283241271972656,0,
00:00:00.5275,-0.00286102294921875,0,
00:00:00.528,-0.0028839111328125,0,
00:00:00.5285,-0.00293540954589844,0,
00:00:00.529,-0.00294685363769531,0,
00:00:00.5295,-0.0028839111328125,0,
00:00:00.53,-0.00288963317871094,0,
00:00:00.5305,-0.00287246704101563,0,
00:00:00.531,-0.00284385681152344,0,
00:00:00.5315,-0.00282096862792969,0,
00:00:00.532,-0.0027923583984375,0,
00:00:00.5325,-0.00275802612304688,0,
00:00:00.533,-0.00272369384765625,0,
00:00:00.5335,-0.00267791748046875,0,
00:00:00.534,-0.00264358520507813,0,
00:00:00.5345,-0.00261497497558594,0,
00:00:00.535,-0.00261497497558594,0,
00:00:00.5355,-0.00261497497558594,0,
00:00:00.536,-0.00261497497558594,0,
00:00:00.5365,-0.0026092529296875,0,
00:00:00.537,-0.00262069702148438,0,
00:00:00.5375,-0.00267219543457031,0,
00:00:00.538,-0.00259780883789063,0,
00:00:00.5385,-0.00258636474609375,0,
00:00:00.539,-0.00261497497558594,0,
00:00:00.5395,-0.00263786315917969,0,
00:00:00.54,-0.002655029296875,0,
00:00:00.5405,-0.00266075134277344,0,
00:00:00.541,-0.00267219543457031,0,
00:00:00.5415,-0.00268936157226563,0,
00:00:00.542,-0.00270652770996094,0,
00:00:00.5425,-0.00274085998535156,0,
00:00:00.543,-0.00278663635253906,0,
00:00:00.5435,-0.00282096862792969,0,
00:00:00.544,-0.00284385681152344,0,
00:00:00.5445,-0.00286674499511719,0,
00:00:00.545,-0.0028839111328125,0,
00:00:00.5455,-0.00290107727050781,0,
00:00:00.546,-0.00294685363769531,0,
00:00:00.5465,-0.00294685363769531,0,
00:00:00.547,-0.00285530090332031,0,
00:00:00.5475,-0.002838134765625,0,
00:00:00.548,-0.00282096862792969,0,
00:00:00.5485,-0.00279808044433594,0,
00:00:00.549,-0.00277519226074219,0,
00:00:00.5495,-0.00274085998535156,0,
00:00:00.55,-0.00270652770996094,0,
00:00:00.5505,-0.00266647338867188,0,
00:00:00.551,-0.00262641906738281,0,
00:00:00.5515,-0.00261497497558594,0,
00:00:00.552,-0.00262069702148438,0,
00:00:00.5525,-0.00268363952636719,0,
00:00:00.553,-0.00259780883789063,0,
00:00:00.5535,-0.00257492065429688,0,
00:00:00.554,-0.00259208679199219,0,
00:00:00.5545,-0.00260353088378906,0,
00:00:00.555,-0.00261497497558594,0,
00:00:00.5555,-0.00263214111328125,0,
00:00:00.556,-0.00267219543457031,0,
00:00:00.5565,-0.00266647338867188,0,
00:00:00.557,-0.002655029296875,0,
00:00:00.5575,-0.00267219543457031,0,
00:00:00.558,-0.00268363952636719,0,
00:00:00.5585,-0.00270652770996094,0,
00:00:00.559,-0.00272941589355469,0,
00:00:00.5595,-0.00277519226074219,0,
00:00:00.56,-0.00281524658203125,0,
00:00:00.5605,-0.00284957885742188,0,
00:00:00.561,-0.00287246704101563,0,
00:00:00.5615,-0.00288963317871094,0,
00:00:00.562,-0.00290679931640625,0,
00:00:00.5625,-0.00291824340820313,0,
00:00:00.563,-0.00291824340820313,0,
00:00:00.5635,-0.00291252136230469,0,
00:00:00.564,-0.0028839111328125,0,
00:00:00.5645,-0.00284957885742188,0,
00:00:00.565,-0.00281524658203125,0,
00:00:00.5655,-0.00278663635253906,0,
00:00:00.566,-0.00275230407714844,0,
00:00:00.5665,-0.00271224975585938,0,
00:00:00.567,-0.00267791748046875,0,
00:00:00.5675,-0.00263786315917969,0,
00:00:00.568,-0.00262069702148438,0,
00:00:00.5685,-0.00261497497558594,0,
00:00:00.569,-0.00261497497558594,0,
00:00:00.5695,-0.00261497497558594,0,
00:00:00.57,-0.00261497497558594,0,
00:00:00.5705,-0.0026092529296875,0,
00:00:00.571,-0.0026092529296875,0,
00:00:00.5715,-0.0026092529296875,0,
00:00:00.572,-0.00261497497558594,0,
00:00:00.5725,-0.00262641906738281,0,
00:00:00.573,-0.00263214111328125,0,
00:00:00.5735,-0.00264930725097656,0,
00:00:00.574,-0.00266075134277344,0,
00:00:00.5745,-0.00267791748046875,0,
00:00:00.575,-0.00269508361816406,0,
00:00:00.5755,-0.00271797180175781,0,
00:00:00.576,-0.00276374816894531,0,
00:00:00.5765,-0.00280380249023438,0,
00:00:00.577,-0.00283241271972656,0,
00:00:00.5775,-0.00285530090332031,0,
00:00:00.578,-0.00287818908691406,0,
00:00:00.5785,-0.00289535522460938,0,
00:00:00.579,-0.00290679931640625,0,
00:00:00.5795,-0.00291252136230469,0,
00:00:00.58,-0.00291252136230469,0,
00:00:00.5805,-0.0028839111328125,0,
00:00:00.581,-0.00288963317871094,0,
00:00:00.5815,-0.00286102294921875,0,
00:00:00.582,-0.00278091430664063,0,
00:00:00.5825,-0.00280952453613281,0,
00:00:00.583,-0.00271797180175781,0,
00:00:00.5835,-0.00266647338867188,0,
00:00:00.584,-0.00264358520507813,0,
00:00:00.5845,-0.00262641906738281,0,
00:00:00.585,-0.00262641906738281,0,
00:00:00.5855,-0.00262069702148438,0,
00:00:00.586,-0.00262069702148438,0,
00:00:00.5865,-0.00262069702148438,0,
00:00:00.587,-0.00262069702148438,0,
00:00:00.5875,-0.00262069702148438,0,
00:00:00.588,-0.00262069702148438,0,
00:00:00.5885,-0.00262641906738281,0,
00:00:00.589,-0.00263786315917969,0,
00:00:00.5895,-0.00264358520507813,0,
00:00:00.59,-0.002655029296875,0,
00:00:00.5905,-0.00266075134277344,0,
00:00:00.591,-0.00267791748046875,0,
00:00:00.5915,-0.00269508361816406,0,
00:00:00.592,-0.00271797180175781,0,
00:00:00.5925,-0.00275230407714844,0,
00:00:00.593,-0.00279808044433594,0,
00:00:00.5935,-0.00283241271972656,0,
00:00:00.594,-0.00286102294921875,0,
00:00:00.5945,-0.0028839111328125,0,
00:00:00.595,-0.00290679931640625,0,
00:00:00.5955,-0.00291824340820313,0,
00:00:00.596,-0.00296401977539063,0,
00:00:00.5965,-0.00296401977539063,0,
00:00:00.597,-0.0028839111328125,0,
00:00:00.5975,-0.00291252136230469,0,
00:00:00.598,-0.00281524658203125,0,
00:00:00.5985,-0.00277519226074219,0,
00:00:00.599,-0.00276374816894531,0,
00:00:00.5995,-0.00273513793945313,0,
00:00:00.6,-0.0027008056640625,0,
00:00:00.6005,-0.00266647338867188,0,
00:00:00.601,-0.00266647338867188,0,
00:00:00.6015,-0.002655029296875,0,
00:00:00.602,-0.00260353088378906,0,
00:00:00.6025,-0.002655029296875,0,
00:00:00.603,-0.00259780883789063,0,
00:00:00.6035,-0.00258064270019531,0,
00:00:00.604,-0.00259780883789063,0,
00:00:00.6045,-0.00260353088378906,0,
00:00:00.605,-0.00261497497558594,0,
00:00:00.6055,-0.00262641906738281,0,
00:00:00.606,-0.00264358520507813,0,
00:00:00.6065,-0.002655029296875,0,
00:00:00.607,-0.00266647338867188,0,
00:00:00.6075,-0.00267219543457031,0,
00:00:00.608,-0.00268936157226563,0,
00:00:00.6085,-0.00273513793945313,0,
00:00:00.609,-0.00276947021484375,0,
00:00:00.6095,-0.00274658203125,0,
00:00:00.61,-0.0027923583984375,0,
00:00:00.6105,-0.00282669067382813,0,
00:00:00.611,-0.00285530090332031,0,
00:00:00.6115,-0.00287818908691406,0,
00:00:00.612,-0.00289535522460938,0,
00:00:00.6125,-0.00290679931640625,0,
00:00:00.613,-0.00291252136230469,0,
00:00:00.6135,-0.00290679931640625,0,
00:00:00.614,-0.00287818908691406,0,
00:00:00.6145,-0.00284385681152344,0,
00:00:00.615,-0.00281524658203125,0,
00:00:00.6155,-0.00278663635253906,0,
00:00:00.616,-0.00275230407714844,0,
00:00:00.6165,-0.00271797180175781,0,
00:00:00.617,-0.00269508361816406,0,
00:00:00.6175,-0.00271224975585938,0,
00:00:00.618,-0.00262069702148438,0,
00:00:00.6185,-0.00259208679199219,0,
00:00:00.619,-0.00260353088378906,0,
00:00:00.6195,-0.0026092529296875,0,
00:00:00.62,-0.00261497497558594,0,
00:00:00.6205,-0.00261497497558594,0,
00:00:00.621,-0.00264358520507813,0,
00:00:00.6215,-0.00262641906738281,0,
00:00:00.622,-0.0026092529296875,0,
00:00:00.6225,-0.00262641906738281,0,
00:00:00.623,-0.00264358520507813,0,
00:00:00.6235,-0.00266075134277344,0,
00:00:00.624,-0.00267219543457031,0,
00:00:00.6245,-0.0027008056640625,0,
00:00:00.625,-0.00277519226074219,0,
00:00:00.6255,-0.00271797180175781,0,
00:00:00.626,-0.00273513793945313,0,
00:00:00.6265,-0.0027923583984375,0,
00:00:00.627,-0.002838134765625,0,
00:00:00.6275,-0.00286102294921875,0,
00:00:00.628,-0.0028839111328125,0,
00:00:00.6285,-0.00289535522460938,0,
00:00:00.629,-0.00290679931640625,0,
00:00:00.6295,-0.00290679931640625,0,
00:00:00.63,-0.00290679931640625,0,
00:00:00.6305,-0.00287818908691406,0,
00:00:00.631,-0.00284385681152344,0,
00:00:00.6315,-0.00281524658203125,0,
00:00:00.632,-0.00278663635253906,0,
00:00:00.6325,-0.00275802612304688,0,
00:00:00.633,-0.00272369384765625,0,
00:00:00.6335,-0.00272369384765625,0,
00:00:00.634,-0.00268936157226563,0,
00:00:00.6345,-0.00259780883789063,0,
00:00:00.635,-0.00260353088378906,0,
00:00:00.6355,-0.0026092529296875,0,
00:00:00.636,-0.00261497497558594,0,
00:00:00.6365,-0.00261497497558594,0,
00:00:00.637,-0.00262069702148438,0,
00:00:00.6375,-0.00262641906738281,0,
00:00:00.638,-0.00262641906738281,0,
00:00:00.6385,-0.00263214111328125,0,
00:00:00.639,-0.00264358520507813,0,
00:00:00.6395,-0.002655029296875,0,
00:00:00.64,-0.00266647338867188,0,
00:00:00.6405,-0.00267219543457031,0,
00:00:00.641,-0.00268363952636719,0,
00:00:00.6415,-0.0027008056640625,0,
00:00:00.642,-0.00272941589355469,0,
00:00:00.6425,-0.00282096862792969,0,
00:00:00.643,-0.0027923583984375,0,
00:00:00.6435,-0.00280380249023438,0,
00:00:00.644,-0.00284385681152344,0,
00:00:00.6445,-0.00287818908691406,0,
00:00:00.645,-0.00290107727050781,0,
00:00:00.6455,-0.00291824340820313,0,
00:00:00.646,-0.00292396545410156,0,
00:00:00.6465,-0.00292396545410156,0,
00:00:00.647,-0.00290679931640625,0,
00:00:00.6475,-0.00286674499511719,0,
00:00:00.648,-0.00283241271972656,0,
00:00:00.6485,-0.002838134765625,0,
00:00:00.649,-0.00280952453613281,0,
00:00:00.6495,-0.00269508361816406,0,
00:00:00.65,-0.00266075134277344,0,
00:00:00.6505,-0.00263214111328125,0,
00:00:00.651,-0.0026092529296875,0,
00:00:00.6515,-0.0026092529296875,0,
00:00:00.652,-0.00262069702148438,0,
00:00:00.6525,-0.00264358520507813,0,
00:00:00.653,-0.0026092529296875,0,
00:00:00.6535,-0.0026092529296875,0,
00:00:00.654,-0.00261497497558594,0,
00:00:00.6545,-0.00262069702148438,0,
00:00:00.655,-0.00262641906738281,0,
00:00:00.6555,-0.00263786315917969,0,
00:00:00.656,-0.00268936157226563,0,
00:00:00.6565,-0.00269508361816406,0,
00:00:00.657,-0.00263786315917969,0,
00:00:00.6575,-0.002655029296875,0,
00:00:00.658,-0.00268363952636719,0,
00:00:00.6585,-0.00270652770996094,0,
00:00:00.659,-0.00274085998535156,0,
00:00:00.6595,-0.0027923583984375,0,
00:00:00.66,-0.00283241271972656,0,
00:00:00.6605,-0.00286102294921875,0,
00:00:00.661,-0.00287818908691406,0,
00:00:00.6615,-0.00289535522460938,0,
00:00:00.662,-0.00290679931640625,0,
00:00:00.6625,-0.00291824340820313,0,
00:00:00.663,-0.00291824340820313,0,
00:00:00.6635,-0.00290679931640625,0,
00:00:00.664,-0.00287818908691406,0,
00:00:00.6645,-0.00285530090332031,0,
00:00:00.665,-0.00287818908691406,0,
00:00:00.6655,-0.00277519226074219,0,
00:00:00.666,-0.00271797180175781,0,
00:00:00.6665,-0.00268936157226563,0,
00:00:00.667,-0.00266075134277344,0,
00:00:00.6675,-0.00262641906738281,0,
00:00:00.668,-0.00261497497558594,0,
00:00:00.6685,-0.00261497497558594,0,
00:00:00.669,-0.00261497497558594,0,
00:00:00.6695,-0.0026092529296875,0,
00:00:00.67,-0.00261497497558594,0,
00:00:00.6705,-0.00261497497558594,0,
00:00:00.671,-0.00262069702148438,0,
00:00:00.6715,-0.00262069702148438,0,
00:00:00.672,-0.00262641906738281,0,
00:00:00.6725,-0.00263786315917969,0,
00:00:00.673,-0.00264358520507813,0,
00:00:00.6735,-0.00268936157226563,0,
00:00:00.674,-0.0027008056640625,0,
00:00:00.6745,-0.00263786315917969,0,
00:00:00.675,-0.00266647338867188,0,
00:00:00.6755,-0.00271224975585938,0,
00:00:00.676,-0.00276374816894531,0,
00:00:00.6765,-0.00280952453613281,0,
00:00:00.677,-0.00284385681152344,0,
00:00:00.6775,-0.00286674499511719,0,
00:00:00.678,-0.00288963317871094,0,
00:00:00.6785,-0.00290679931640625,0,
00:00:00.679,-0.00291824340820313,0,
00:00:00.6795,-0.00292396545410156,0,
00:00:00.68,-0.00291824340820313,0,
00:00:00.6805,-0.0028839111328125,0,
00:00:00.681,-0.00284957885742188,0,
00:00:00.6815,-0.00281524658203125,0,
00:00:00.682,-0.00278663635253906,0,
00:00:00.6825,-0.00275230407714844,0,
00:00:00.683,-0.00271224975585938,0,
00:00:00.6835,-0.00267219543457031,0,
00:00:00.684,-0.00263786315917969,0,
00:00:00.6845,-0.00262069702148438,0,
00:00:00.685,-0.00262069702148438,0,
00:00:00.6855,-0.00262069702148438,0,
00:00:00.686,-0.00261497497558594,0,
00:00:00.6865,-0.00261497497558594,0,
00:00:00.687,-0.00261497497558594,0,
00:00:00.6875,-0.00261497497558594,0,
00:00:00.688,-0.0026092529296875,0,
00:00:00.6885,-0.00261497497558594,0,
00:00:00.689,-0.00263214111328125,0,
00:00:00.6895,-0.00264358520507813,0,
00:00:00.69,-0.002655029296875,0,
00:00:00.6905,-0.00267219543457031,0,
00:00:00.691,-0.00268936157226563,0,
00:00:00.6915,-0.00270652770996094,0,
00:00:00.692,-0.00272941589355469,0,
00:00:00.6925,-0.00276947021484375,0,
00:00:00.693,-0.00280952453613281,0,
00:00:00.6935,-0.00284385681152344,0,
00:00:00.694,-0.00286674499511719,0,
00:00:00.6945,-0.0028839111328125,0,
00:00:00.695,-0.00290107727050781,0,
00:00:00.6955,-0.00291252136230469,0,
00:00:00.696,-0.00291824340820313,0,
00:00:00.6965,-0.00291824340820313,0,
00:00:00.697,-0.00290107727050781,0,
00:00:00.6975,-0.00286102294921875,0,
00:00:00.698,-0.00283241271972656,0,
00:00:00.6985,-0.00280380249023438,0,
00:00:00.699,-0.00276947021484375,0,
00:00:00.6995,-0.00274085998535156,0,
00:00:00.7,-0.00274658203125,0,
00:00:00.7005,-0.00264930725097656,0,
00:00:00.701,-0.00262641906738281,0,
00:00:00.7015,-0.00263214111328125,0,
00:00:00.702,-0.00257492065429688,0,
00:00:00.7025,-0.00258064270019531,0,
00:00:00.703,-0.00259208679199219,0,
00:00:00.7035,-0.00260353088378906,0,
00:00:00.704,-0.0026092529296875,0,
00:00:00.7045,-0.0026092529296875,0,
00:00:00.705,-0.0026092529296875,0,
00:00:00.7055,-0.00262641906738281,0,
00:00:00.706,-0.00263786315917969,0,
00:00:00.7065,-0.00264930725097656,0,
00:00:00.707,-0.00266075134277344,0,
00:00:00.7075,-0.00266647338867188,0,
00:00:00.708,-0.00268363952636719,0,
00:00:00.7085,-0.00270652770996094,0,
00:00:00.709,-0.00273513793945313,0,
00:00:00.7095,-0.00278091430664063,0,
00:00:00.71,-0.00282096862792969,0,
00:00:00.7105,-0.00284385681152344,0,
00:00:00.711,-0.00290107727050781,0,
00:00:00.7115,-0.00292396545410156,0,
00:00:00.712,-0.00287246704101563,0,
00:00:00.7125,-0.00294113159179688,0,
00:00:00.713,-0.00288963317871094,0,
00:00:00.7135,-0.00286674499511719,0,
00:00:00.714,-0.00284957885742188,0,
00:00:00.7145,-0.002838134765625,0,
00:00:00.715,-0.00286674499511719,0,
00:00:00.7155,-0.00276947021484375,0,
00:00:00.716,-0.00271797180175781,0,
00:00:00.7165,-0.00268936157226563,0,
00:00:00.717,-0.00266647338867188,0,
00:00:00.7175,-0.00262641906738281,0,
00:00:00.718,-0.00261497497558594,0,
00:00:00.7185,-0.00263214111328125,0,
00:00:00.719,-0.00261497497558594,0,
00:00:00.7195,-0.00259208679199219,0,
00:00:00.72,-0.00259780883789063,0,
00:00:00.7205,-0.00260353088378906,0,
00:00:00.721,-0.00264358520507813,0,
00:00:00.7215,-0.00264358520507813,0,
00:00:00.722,-0.00257492065429688,0,
00:00:00.7225,-0.00259780883789063,0,
00:00:00.723,-0.00262069702148438,0,
00:00:00.7235,-0.00263786315917969,0,
00:00:00.724,-0.00264930725097656,0,
00:00:00.7245,-0.00267219543457031,0,
00:00:00.725,-0.00268936157226563,0,
00:00:00.7255,-0.00272369384765625,0,
00:00:00.726,-0.00277519226074219,0,
00:00:00.7265,-0.00281524658203125,0,
00:00:00.727,-0.00284957885742188,0,
00:00:00.7275,-0.00287246704101563,0,
00:00:00.728,-0.00289535522460938,0,
00:00:00.7285,-0.00290679931640625,0,
00:00:00.729,-0.00291252136230469,0,
00:00:00.7295,-0.0029296875,0,
00:00:00.73,-0.00296974182128906,0,
00:00:00.7305,-0.00286674499511719,0,
00:00:00.731,-0.00280380249023438,0,
00:00:00.7315,-0.0027923583984375,0,
00:00:00.732,-0.00276947021484375,0,
00:00:00.7325,-0.00273513793945313,0,
00:00:00.733,-0.0027008056640625,0,
00:00:00.7335,-0.00266647338867188,0,
00:00:00.734,-0.00263214111328125,0,
00:00:00.7345,-0.0026092529296875,0,
00:00:00.735,-0.0026092529296875,0,
00:00:00.7355,-0.0026092529296875,0,
00:00:00.736,-0.00264358520507813,0,
00:00:00.7365,-0.00264358520507813,0,
00:00:00.737,-0.00256919860839844,0,
00:00:00.7375,-0.00258064270019531,0,
00:00:00.738,-0.00258636474609375,0,
00:00:00.7385,-0.00260353088378906,0,
00:00:00.739,-0.00262069702148438,0,
00:00:00.7395,-0.00263786315917969,0,
00:00:00.74,-0.00264358520507813,0,
00:00:00.7405,-0.002655029296875,0,
00:00:00.741,-0.00266647338867188,0,
00:00:00.7415,-0.00268363952636719,0,
00:00:00.742,-0.00270652770996094,0,
00:00:00.7425,-0.00274658203125,0,
00:00:00.743,-0.0027923583984375,0,
00:00:00.7435,-0.00282669067382813,0,
00:00:00.744,-0.00285530090332031,0,
00:00:00.7445,-0.00287818908691406,0,
00:00:00.745,-0.00289535522460938,0,
00:00:00.7455,-0.00290107727050781,0,
00:00:00.746,-0.00290107727050781,0,
00:00:00.7465,-0.00289535522460938,0,
00:00:00.747,-0.00287246704101563,0,
00:00:00.7475,-0.00283241271972656,0,
00:00:00.748,-0.00279808044433594,0,
00:00:00.7485,-0.00276947021484375,0,
00:00:00.749,-0.00273513793945313,0,
00:00:00.7495,-0.00270652770996094,0,
00:00:00.75,-0.00272941589355469,0,
00:00:00.7505,-0.0026092529296875,0,
00:00:00.751,-0.00255775451660156,0,
00:00:00.7515,-0.00257492065429688,0,
00:00:00.752,-0.00259780883789063,0,
00:00:00.7525,-0.00266647338867188,0,
00:00:00.753,-0.00258636474609375,0,
00:00:00.7535,-0.00259208679199219,0,
00:00:00.754,-0.00259780883789063,0,
00:00:00.7545,-0.00259208679199219,0,
00:00:00.755,-0.0026092529296875,0,
00:00:00.7555,-0.00263214111328125,0,
00:00:00.756,-0.00264930725097656,0,
00:00:00.7565,-0.002655029296875,0,
00:00:00.757,-0.00266075134277344,0,
00:00:00.7575,-0.00267219543457031,0,
00:00:00.758,-0.00268936157226563,0,
00:00:00.7585,-0.00270652770996094,0,
00:00:00.759,-0.00274085998535156,0,
00:00:00.7595,-0.0027923583984375,0,
00:00:00.76,-0.00287818908691406,0,
00:00:00.7605,-0.002838134765625,0,
00:00:00.761,-0.002838134765625,0,
00:00:00.7615,-0.00287246704101563,0,
00:00:00.762,-0.00289535522460938,0,
00:00:00.7625,-0.00290679931640625,0,
00:00:00.763,-0.00291252136230469,0,
00:00:00.7635,-0.00290107727050781,0,
00:00:00.764,-0.00286674499511719,0,
00:00:00.7645,-0.00283241271972656,0,
00:00:00.765,-0.00280380249023438,0,
00:00:00.7655,-0.00276947021484375,0,
00:00:00.766,-0.00272941589355469,0,
00:00:00.7665,-0.00268363952636719,0,
00:00:00.767,-0.00264358520507813,0,
00:00:00.7675,-0.0026092529296875,0,
00:00:00.768,-0.00259780883789063,0,
00:00:00.7685,-0.00259780883789063,0,
00:00:00.769,-0.00259780883789063,0,
00:00:00.7695,-0.00259208679199219,0,
00:00:00.77,-0.00259208679199219,0,
00:00:00.7705,-0.00259780883789063,0,
00:00:00.771,-0.00259780883789063,0,
00:00:00.7715,-0.00259780883789063,0,
00:00:00.772,-0.0026092529296875,0,
00:00:00.7725,-0.00262641906738281,0,
00:00:00.773,-0.00263786315917969,0,
00:00:00.7735,-0.00268936157226563,0,
00:00:00.774,-0.00269508361816406,0,
00:00:00.7745,-0.00263214111328125,0,
00:00:00.775,-0.00266075134277344,0,
00:00:00.7755,-0.0027008056640625,0,
00:00:00.776,-0.0027923583984375,0,
00:00:00.7765,-0.00283241271972656,0,
00:00:00.777,-0.00279808044433594,0,
00:00:00.7775,-0.00283241271972656,0,
00:00:00.778,-0.00286674499511719,0,
00:00:00.7785,-0.00289535522460938,0,
00:00:00.779,-0.00290679931640625,0,
00:00:00.7795,-0.00291824340820313,0,
00:00:00.78,-0.0029296875,0,
00:00:00.7805,-0.00286102294921875,0,
00:00:00.781,-0.00282096862792969,0,
00:00:00.7815,-0.00279808044433594,0,
00:00:00.782,-0.00277519226074219,0,
00:00:00.7825,-0.00274085998535156,0,
00:00:00.783,-0.0027008056640625,0,
00:00:00.7835,-0.00267219543457031,0,
00:00:00.784,-0.00262641906738281,0,
00:00:00.7845,-0.00261497497558594,0,
00:00:00.785,-0.00266647338867188,0,
00:00:00.7855,-0.00258636474609375,0,
00:00:00.786,-0.0025634765625,0,
00:00:00.7865,-0.00257492065429688,0,
00:00:00.787,-0.00258064270019531,0,
00:00:00.7875,-0.00258636474609375,0,
00:00:00.788,-0.00258636474609375,0,
00:00:00.7885,-0.00259208679199219,0,
00:00:00.789,-0.00260353088378906,0,
00:00:00.7895,-0.00262069702148438,0,
00:00:00.79,-0.00262641906738281,0,
00:00:00.7905,-0.00263786315917969,0,
00:00:00.791,-0.002655029296875,0,
00:00:00.7915,-0.00267791748046875,0,
00:00:00.792,-0.0027008056640625,0,
00:00:00.7925,-0.00274658203125,0,
00:00:00.793,-0.0027923583984375,0,
00:00:00.7935,-0.00285530090332031,0,
00:00:00.794,-0.00287818908691406,0,
00:00:00.7945,-0.00283241271972656,0,
00:00:00.795,-0.00286102294921875,0,
00:00:00.7955,-0.0028839111328125,0,
00:00:00.796,-0.00289535522460938,0,
00:00:00.7965,-0.00289535522460938,0,
00:00:00.797,-0.00287246704101563,0,
00:00:00.7975,-0.002838134765625,0,
00:00:00.798,-0.00280952453613281,0,
00:00:00.7985,-0.00278663635253906,0,
00:00:00.799,-0.00274658203125,0,
00:00:00.7995,-0.00270652770996094,0,
00:00:00.8,-0.00266647338867188,0,
00:00:00.8005,-0.00263214111328125,0,
00:00:00.801,-0.00260353088378906,0,
00:00:00.8015,-0.00260353088378906,0,
00:00:00.802,-0.00259780883789063,0,
00:00:00.8025,-0.00259780883789063,0,
00:00:00.803,-0.00259208679199219,0,
00:00:00.8035,-0.00259208679199219,0,
00:00:00.804,-0.00259780883789063,0,
00:00:00.8045,-0.00259780883789063,0,
00:00:00.805,-0.00260353088378906,0,
00:00:00.8055,-0.00261497497558594,0,
00:00:00.806,-0.00262641906738281,0,
00:00:00.8065,-0.00263214111328125,0,
00:00:00.807,-0.00263786315917969,0,
00:00:00.8075,-0.00264930725097656,0,
00:00:00.808,-0.00266647338867188,0,
00:00:00.8085,-0.00268363952636719,0,
00:00:00.809,-0.00271797180175781,0,
00:00:00.8095,-0.00276374816894531,0,
00:00:00.81,-0.0027923583984375,0,
00:00:00.8105,-0.00282096862792969,0,
00:00:00.811,-0.00284385681152344,0,
00:00:00.8115,-0.00286674499511719,0,
00:00:00.812,-0.00287818908691406,0,
00:00:00.8125,-0.0028839111328125,0,
00:00:00.813,-0.00288963317871094,0,
00:00:00.8135,-0.00287818908691406,0,
00:00:00.814,-0.00284957885742188,0,
00:00:00.8145,-0.00281524658203125,0,
00:00:00.815,-0.0027923583984375,0,
00:00:00.8155,-0.00275802612304688,0,
00:00:00.816,-0.00272369384765625,0,
00:00:00.8165,-0.00268363952636719,0,
00:00:00.817,-0.00264930725097656,0,
00:00:00.8175,-0.0026092529296875,0,
00:00:00.818,-0.00260353088378906,0,
00:00:00.8185,-0.00259780883789063,0,
00:00:00.819,-0.00259780883789063,0,
00:00:00.8195,-0.00259780883789063,0,
00:00:00.82,-0.00264358520507813,0,
00:00:00.8205,-0.00258064270019531,0,
00:00:00.821,-0.00259208679199219,0,
00:00:00.8215,-0.0026092529296875,0,
00:00:00.822,-0.0025634765625,0,
00:00:00.8225,-0.00259208679199219,0,
00:00:00.823,-0.00261497497558594,0,
00:00:00.8235,-0.00263786315917969,0,
00:00:00.824,-0.00264930725097656,0,
00:00:00.8245,-0.00267219543457031,0,
00:00:00.825,-0.00268936157226563,0,
00:00:00.8255,-0.00271797180175781,0,
00:00:00.826,-0.00276374816894531,0,
00:00:00.8265,-0.00280380249023438,0,
00:00:00.827,-0.00283241271972656,0,
00:00:00.8275,-0.00285530090332031,0,
00:00:00.828,-0.00287818908691406,0,
00:00:00.8285,-0.00289535522460938,0,
00:00:00.829,-0.00290107727050781,0,
00:00:00.8295,-0.00290679931640625,0,
00:00:00.83,-0.00288963317871094,0,
00:00:00.8305,-0.00286102294921875,0,
00:00:00.831,-0.00282096862792969,0,
00:00:00.8315,-0.0027923583984375,0,
00:00:00.832,-0.00276947021484375,0,
00:00:00.8325,-0.0027923583984375,0,
00:00:00.833,-0.00267219543457031,0,
00:00:00.8335,-0.002655029296875,0,
00:00:00.834,-0.00262641906738281,0,
00:00:00.8345,-0.00254631042480469,0,
00:00:00.835,-0.00255775451660156,0,
00:00:00.8355,-0.00257492065429688,0,
00:00:00.836,-0.00258636474609375,0,
00:00:00.8365,-0.00258636474609375,0,
00:00:00.837,-0.00259780883789063,0,
00:00:00.8375,-0.00266075134277344,0,
00:00:00.838,-0.00257492065429688,0,
00:00:00.8385,-0.0025634765625,0,
00:00:00.839,-0.00259208679199219,0,
00:00:00.8395,-0.00261497497558594,0,
00:00:00.84,-0.00262641906738281,0,
00:00:00.8405,-0.00263786315917969,0,
00:00:00.841,-0.002655029296875,0,
00:00:00.8415,-0.00267791748046875,0,
00:00:00.842,-0.0027008056640625,0,
00:00:00.8425,-0.00274085998535156,0,
00:00:00.843,-0.00278663635253906,0,
00:00:00.8435,-0.00281524658203125,0,
00:00:00.844,-0.002838134765625,0,
00:00:00.8445,-0.00286102294921875,0,
00:00:00.845,-0.00287818908691406,0,
00:00:00.8455,-0.00288963317871094,0,
00:00:00.846,-0.00289535522460938,0,
00:00:00.8465,-0.00288963317871094,0,
00:00:00.847,-0.00286674499511719,0,
00:00:00.8475,-0.00282669067382813,0,
00:00:00.848,-0.00279808044433594,0,
00:00:00.8485,-0.00276947021484375,0,
00:00:00.849,-0.00273513793945313,0,
00:00:00.8495,-0.0027008056640625,0,
00:00:00.85,-0.00266075134277344,0,
00:00:00.8505,-0.00261497497558594,0,
00:00:00.851,-0.00258636474609375,0,
00:00:00.8515,-0.00258064270019531,0,
00:00:00.852,-0.00258064270019531,0,
00:00:00.8525,-0.00258064270019531,0,
00:00:00.853,-0.00257492065429688,0,
00:00:00.8535,-0.00257492065429688,0,
00:00:00.854,-0.00257492065429688,0,
00:00:00.8545,-0.00257492065429688,0,
00:00:00.855,-0.00258064270019531,0,
00:00:00.8555,-0.00259780883789063,0,
00:00:00.856,-0.00261497497558594,0,
00:00:00.8565,-0.00262641906738281,0,
00:00:00.857,-0.00263786315917969,0,
00:00:00.8575,-0.00264930725097656,0,
00:00:00.858,-0.00266075134277344,0,
00:00:00.8585,-0.00267791748046875,0,
00:00:00.859,-0.00271797180175781,0,
00:00:00.8595,-0.00276374816894531,0,
00:00:00.86,-0.00279808044433594,0,
00:00:00.8605,-0.00282669067382813,0,
00:00:00.861,-0.00284957885742188,0,
00:00:00.8615,-0.00286674499511719,0,
00:00:00.862,-0.00287818908691406,0,
00:00:00.8625,-0.00288963317871094,0,
00:00:00.863,-0.00288963317871094,0,
00:00:00.8635,-0.00290679931640625,0,
00:00:00.864,-0.00286674499511719,0,
00:00:00.8645,-0.00276947021484375,0,
00:00:00.865,-0.00280952453613281,0,
00:00:00.8655,-0.00271224975585938,0,
00:00:00.866,-0.0027008056640625,0,
00:00:00.8665,-0.00268363952636719,0,
00:00:00.867,-0.00259208679199219,0,
00:00:00.8675,-0.00259208679199219,0,
00:00:00.868,-0.00255775451660156,0,
00:00:00.8685,-0.00260353088378906,0,
00:00:00.869,-0.00261497497558594,0,
00:00:00.8695,-0.00254058837890625,0,
00:00:00.87,-0.00255203247070313,0,
00:00:00.8705,-0.0025634765625,0,
00:00:00.871,-0.00257492065429688,0,
00:00:00.8715,-0.00257492065429688,0,
00:00:00.872,-0.00258636474609375,0,
00:00:00.8725,-0.00259780883789063,0,
00:00:00.873,-0.0026092529296875,0,
00:00:00.8735,-0.00266075134277344,0,
00:00:00.874,-0.00267219543457031,0,
00:00:00.8745,-0.00261497497558594,0,
00:00:00.875,-0.00264358520507813,0,
00:00:00.8755,-0.00268363952636719,0,
00:00:00.876,-0.00273513793945313,0,
00:00:00.8765,-0.00278091430664063,0,
00:00:00.877,-0.00281524658203125,0,
00:00:00.8775,-0.00286102294921875,0,
00:00:00.878,-0.00284385681152344,0,
00:00:00.8785,-0.00286102294921875,0,
00:00:00.879,-0.00287818908691406,0,
00:00:00.8795,-0.00289535522460938,0,
00:00:00.88,-0.00293540954589844,0,
00:00:00.8805,-0.002838134765625,0,
00:00:00.881,-0.00278091430664063,0,
00:00:00.8815,-0.00276374816894531,0,
00:00:00.882,-0.00274085998535156,0,
00:00:00.8825,-0.00271224975585938,0,
00:00:00.883,-0.00267219543457031,0,
00:00:00.8835,-0.00263786315917969,0,
00:00:00.884,-0.00259780883789063,0,
00:00:00.8845,-0.00258636474609375,0,
00:00:00.885,-0.00258064270019531,0,
00:00:00.8855,-0.00257492065429688,0,
00:00:00.886,-0.00257492065429688,0,
00:00:00.8865,-0.00258064270019531,0,
00:00:00.887,-0.00258064270019531,0,
00:00:00.8875,-0.00258636474609375,0,
00:00:00.888,-0.00258636474609375,0,
00:00:00.8885,-0.00263214111328125,0,
00:00:00.889,-0.00264358520507813,0,
00:00:00.8895,-0.00259208679199219,0,
00:00:00.89,-0.0026092529296875,0,
00:00:00.8905,-0.00262641906738281,0,
00:00:00.891,-0.00264930725097656,0,
00:00:00.8915,-0.00267219543457031,0,
00:00:00.892,-0.00268936157226563,0,
00:00:00.8925,-0.00272941589355469,0,
00:00:00.893,-0.00276947021484375,0,
00:00:00.8935,-0.00280380249023438,0,
00:00:00.894,-0.00283241271972656,0,
00:00:00.8945,-0.00284957885742188,0,
00:00:00.895,-0.00287246704101563,0,
00:00:00.8955,-0.0028839111328125,0,
00:00:00.896,-0.00288963317871094,0,
00:00:00.8965,-0.0028839111328125,0,
00:00:00.897,-0.00286674499511719,0,
00:00:00.8975,-0.00288963317871094,0,
00:00:00.898,-0.00277519226074219,0,
00:00:00.8985,-0.00272369384765625,0,
00:00:00.899,-0.0027008056640625,0,
00:00:00.8995,-0.00267791748046875,0,
00:00:00.9,-0.00264930725097656,0,
00:00:00.9005,-0.0026092529296875,0,
00:00:00.901,-0.00258636474609375,0,
00:00:00.9015,-0.00258636474609375,0,
00:00:00.902,-0.00258064270019531,0,
00:00:00.9025,-0.00258064270019531,0,
00:00:00.903,-0.00258064270019531,0,
00:00:00.9035,-0.00258064270019531,0,
00:00:00.904,-0.00258064270019531,0,
00:00:00.9045,-0.00258064270019531,0,
00:00:00.905,-0.00258636474609375,0,
00:00:00.9055,-0.00259780883789063,0,
00:00:00.906,-0.00264358520507813,0,
00:00:00.9065,-0.00264930725097656,0,
00:00:00.907,-0.00259208679199219,0,
00:00:00.9075,-0.00261497497558594,0,
00:00:00.908,-0.00264358520507813,0,
00:00:00.9085,-0.00267219543457031,0,
00:00:00.909,-0.00271797180175781,0,
00:00:00.9095,-0.00276947021484375,0,
00:00:00.91,-0.00282096862792969,0,
00:00:00.9105,-0.00281524658203125,0,
00:00:00.911,-0.00284385681152344,0,
00:00:00.9115,-0.00286674499511719,0,
00:00:00.912,-0.00288963317871094,0,
00:00:00.9125,-0.00295829772949219,0,
00:00:00.913,-0.00287246704101563,0,
00:00:00.9135,-0.00282669067382813,0,
00:00:00.914,-0.00280952453613281,0,
00:00:00.9145,-0.0027923583984375,0,
00:00:00.915,-0.00277519226074219,0,
00:00:00.9155,-0.00275802612304688,0,
00:00:00.916,-0.00272369384765625,0,
00:00:00.9165,-0.00267791748046875,0,
00:00:00.917,-0.00264358520507813,0,
00:00:00.9175,-0.00260353088378906,0,
00:00:00.918,-0.00259208679199219,0,
00:00:00.9185,-0.00258636474609375,0,
00:00:00.919,-0.00258064270019531,0,
00:00:00.9195,-0.00258064270019531,0,
00:00:00.92,-0.00258064270019531,0,
00:00:00.9205,-0.00258064270019531,0,
00:00:00.921,-0.00258064270019531,0,
00:00:00.9215,-0.00258064270019531,0,
00:00:00.922,-0.00259208679199219,0,
00:00:00.9225,-0.0026092529296875,0,
00:00:00.923,-0.00262641906738281,0,
00:00:00.9235,-0.00263786315917969,0,
00:00:00.924,-0.00264930725097656,0,
00:00:00.9245,-0.00266647338867188,0,
00:00:00.925,-0.00268936157226563,0,
00:00:00.9255,-0.00271797180175781,0,
00:00:00.926,-0.00275802612304688,0,
00:00:00.9265,-0.0027923583984375,0,
00:00:00.927,-0.00281524658203125,0,
00:00:00.9275,-0.002838134765625,0,
00:00:00.928,-0.00286102294921875,0,
00:00:00.9285,-0.00287818908691406,0,
00:00:00.929,-0.00287818908691406,0,
00:00:00.9295,-0.0028839111328125,0,
00:00:00.93,-0.00287246704101563,0,
00:00:00.9305,-0.002838134765625,0,
00:00:00.931,-0.00280952453613281,0,
00:00:00.9315,-0.00277519226074219,0,
00:00:00.932,-0.00274085998535156,0,
00:00:00.9325,-0.00271224975585938,0,
00:00:00.933,-0.00266647338867188,0,
00:00:00.9335,-0.00263214111328125,0,
00:00:00.934,-0.00259208679199219,0,
00:00:00.9345,-0.00258636474609375,0,
00:00:00.935,-0.00258636474609375,0,
00:00:00.9355,-0.00258636474609375,0,
00:00:00.936,-0.00259208679199219,0,
00:00:00.9365,-0.00259780883789063,0,
00:00:00.937,-0.00259208679199219,0,
00:00:00.9375,-0.00259208679199219,0,
00:00:00.938,-0.00259208679199219,0,
00:00:00.9385,-0.00263786315917969,0,
00:00:00.939,-0.00264930725097656,0,
00:00:00.9395,-0.00258636474609375,0,
00:00:00.94,-0.00266075134277344,0,
00:00:00.9405,-0.00259780883789063,0,
00:00:00.941,-0.00259780883789063,0,
00:00:00.9415,-0.00263786315917969,0,
00:00:00.942,-0.00267791748046875,0,
00:00:00.9425,-0.00273513793945313,0,
00:00:00.943,-0.00278091430664063,0,
00:00:00.9435,-0.00281524658203125,0,
00:00:00.944,-0.00284385681152344,0,
00:00:00.9445,-0.00286674499511719,0,
00:00:00.945,-0.0028839111328125,0,
00:00:00.9455,-0.00289535522460938,0,
00:00:00.946,-0.00290107727050781,0,
00:00:00.9465,-0.00289535522460938,0,
00:00:00.947,-0.00286102294921875,0,
00:00:00.9475,-0.00282669067382813,0,
00:00:00.948,-0.00279808044433594,0,
00:00:00.9485,-0.00276374816894531,0,
00:00:00.949,-0.00273513793945313,0,
00:00:00.9495,-0.00269508361816406,0,
00:00:00.95,-0.00266075134277344,0,
00:00:00.9505,-0.00261497497558594,0,
00:00:00.951,-0.00259780883789063,0,
00:00:00.9515,-0.00259208679199219,0,
00:00:00.952,-0.00259780883789063,0,
00:00:00.9525,-0.00264358520507813,0,
00:00:00.953,-0.00256919860839844,0,
00:00:00.9535,-0.00255203247070313,0,
00:00:00.954,-0.0025634765625,0,
00:00:00.9545,-0.00256919860839844,0,
00:00:00.955,-0.00258064270019531,0,
00:00:00.9555,-0.00259780883789063,0,
00:00:00.956,-0.00261497497558594,0,
00:00:00.9565,-0.00262641906738281,0,
00:00:00.957,-0.00263786315917969,0,
00:00:00.9575,-0.002655029296875,0,
00:00:00.958,-0.00267219543457031,0,
00:00:00.9585,-0.00269508361816406,0,
00:00:00.959,-0.00273513793945313,0,
00:00:00.9595,-0.00277519226074219,0,
00:00:00.96,-0.00280380249023438,0,
00:00:00.9605,-0.00282669067382813,0,
00:00:00.961,-0.00284385681152344,0,
00:00:00.9615,-0.00286674499511719,0,
00:00:00.962,-0.00287818908691406,0,
00:00:00.9625,-0.0028839111328125,0,
00:00:00.963,-0.0028839111328125,0,
00:00:00.9635,-0.00285530090332031,0,
00:00:00.964,-0.00282096862792969,0,
00:00:00.9645,-0.00279808044433594,0,
00:00:00.965,-0.00277519226074219,0,
00:00:00.9655,-0.00274085998535156,0,
00:00:00.966,-0.00270652770996094,0,
00:00:00.9665,-0.00267219543457031,0,
00:00:00.967,-0.00263786315917969,0,
00:00:00.9675,-0.00260353088378906,0,
00:00:00.968,-0.00259780883789063,0,
00:00:00.9685,-0.00259780883789063,0,
00:00:00.969,-0.00259780883789063,0,
00:00:00.9695,-0.00259208679199219,0,
00:00:00.97,-0.00259208679199219,0,
00:00:00.9705,-0.00259208679199219,0,
00:00:00.971,-0.00259208679199219,0,
00:00:00.9715,-0.00259208679199219,0,
00:00:00.972,-0.00260353088378906,0,
00:00:00.9725,-0.00261497497558594,0,
00:00:00.973,-0.00262641906738281,0,
00:00:00.9735,-0.00263786315917969,0,
00:00:00.974,-0.00264930725097656,0,
00:00:00.9745,-0.00266075134277344,0,
00:00:00.975,-0.00268363952636719,0,
00:00:00.9755,-0.00271224975585938,0,
00:00:00.976,-0.00275230407714844,0,
00:00:00.9765,-0.00278663635253906,0,
00:00:00.977,-0.00281524658203125,0,
00:00:00.9775,-0.002838134765625,0,
00:00:00.978,-0.00285530090332031,0,
00:00:00.9785,-0.00286674499511719,0,
00:00:00.979,-0.00287246704101563,0,
00:00:00.9795,-0.0028839111328125,0,
00:00:00.98,-0.0029296875,0,
00:00:00.9805,-0.00282096862792969,0,
00:00:00.981,-0.00280380249023438,0,
00:00:00.9815,-0.0027923583984375,0,
00:00:00.982,-0.0027008056640625,0,
00:00:00.9825,-0.00268363952636719,0,
00:00:00.983,-0.002655029296875,0,
00:00:00.9835,-0.00263214111328125,0,
00:00:00.984,-0.00259780883789063,0,
00:00:00.9845,-0.00259780883789063,0,
00:00:00.985,-0.00266075134277344,0,
00:00:00.9855,-0.00258064270019531,0,
00:00:00.986,-0.00259780883789063,0,
00:00:00.9865,-0.0026092529296875,0,
00:00:00.987,-0.00255203247070313,0,
00:00:00.9875,-0.00263214111328125,0,
00:00:00.988,-0.00258064270019531,0,
00:00:00.9885,-0.00254631042480469,0,
00:00:00.989,-0.00258064270019531,0,
00:00:00.9895,-0.0026092529296875,0,
00:00:00.99,-0.00264930725097656,0,
00:00:00.9905,-0.00263214111328125,0,
00:00:00.991,-0.00264930725097656,0,
00:00:00.9915,-0.00266647338867188,0,
00:00:00.992,-0.0027008056640625,0,
00:00:00.9925,-0.00274658203125,0,
00:00:00.993,-0.00278663635253906,0,
00:00:00.9935,-0.00285530090332031,0,
00:00:00.994,-0.00287246704101563,0,
00:00:00.9945,-0.00282669067382813,0,
00:00:00.995,-0.00284957885742188,0,
00:00:00.9955,-0.00287246704101563,0,
00:00:00.996,-0.0028839111328125,0,
00:00:00.9965,-0.00287818908691406,0,
00:00:00.997,-0.00284957885742188,0,
00:00:00.9975,-0.00281524658203125,0,
00:00:00.998,-0.0027923583984375,0,
00:00:00.9985,-0.00276374816894531,0,
00:00:00.999,-0.00272941589355469,0,
00:00:00.9995,-0.00269508361816406,0,
00:00:01,-0.00266075134277344,0,
00:00:01.0005,-0.00261497497558594,0,
00:00:01.001,-0.00259208679199219,0,
00:00:01.0015,-0.00258636474609375,0,
00:00:01.002,-0.00259208679199219,0,
00:00:01.0025,-0.00264358520507813,0,
00:00:01.003,-0.0025634765625,0,
00:00:01.0035,-0.00253486633300781,0,
00:00:01.004,-0.00255203247070313,0,
00:00:01.0045,-0.0025634765625,0,
00:00:01.005,-0.00258064270019531,0,
00:00:01.0055,-0.00260353088378906,0,
00:00:01.006,-0.00262069702148438,0,
00:00:01.0065,-0.00262641906738281,0,
00:00:01.007,-0.00263786315917969,0,
00:00:01.0075,-0.00264930725097656,0,
00:00:01.008,-0.00267219543457031,0,
00:00:01.0085,-0.00272941589355469,0,
00:00:01.009,-0.00276947021484375,0,
00:00:01.0095,-0.00273513793945313,0,
00:00:01.01,-0.00277519226074219,0,
00:00:01.0105,-0.00281524658203125,0,
00:00:01.011,-0.00284385681152344,0,
00:00:01.0115,-0.00286674499511719,0,
00:00:01.012,-0.00288963317871094,0,
00:00:01.0125,-0.00291824340820313,0,
00:00:01.013,-0.0028839111328125,0,
00:00:01.0135,-0.00286102294921875,0,
00:00:01.014,-0.00283241271972656,0,
00:00:01.0145,-0.00280380249023438,0,
00:00:01.015,-0.00277519226074219,0,
00:00:01.0155,-0.00274658203125,0,
00:00:01.016,-0.00274085998535156,0,
00:00:01.0165,-0.0027008056640625,0,
00:00:01.017,-0.00258636474609375,0,
00:00:01.0175,-0.00255775451660156,0,
00:00:01.018,-0.0025634765625,0,
00:00:01.0185,-0.00256919860839844,0,
00:00:01.019,-0.00257492065429688,0,
00:00:01.0195,-0.00256919860839844,0,
00:00:01.02,-0.00256919860839844,0,
00:00:01.0205,-0.00256919860839844,0,
00:00:01.021,-0.00256919860839844,0,
00:00:01.0215,-0.00256919860839844,0,
00:00:01.022,-0.00258064270019531,0,
00:00:01.0225,-0.00259208679199219,0,
00:00:01.023,-0.00260353088378906,0,
00:00:01.0235,-0.0026092529296875,0,
00:00:01.024,-0.00262069702148438,0,
00:00:01.0245,-0.00264358520507813,0,
00:00:01.025,-0.00271224975585938,0,
00:00:01.0255,-0.00268936157226563,0,
00:00:01.026,-0.00271797180175781,0,
00:00:01.0265,-0.00277519226074219,0,
00:00:01.027,-0.00281524658203125,0,
00:00:01.0275,-0.00284385681152344,0,
00:00:01.028,-0.00287246704101563,0,
00:00:01.0285,-0.00288963317871094,0,
00:00:01.029,-0.00289535522460938,0,
00:00:01.0295,-0.00290107727050781,0,
00:00:01.03,-0.0028839111328125,0,
00:00:01.0305,-0.00284957885742188,0,
00:00:01.031,-0.00280952453613281,0,
00:00:01.0315,-0.00278091430664063,0,
00:00:01.032,-0.00274658203125,0,
00:00:01.0325,-0.00271224975585938,0,
00:00:01.033,-0.00267219543457031,0,
00:00:01.0335,-0.00263214111328125,0,
00:00:01.034,-0.00259208679199219,0,
00:00:01.0345,-0.00258636474609375,0,
00:00:01.035,-0.00258064270019531,0,
00:00:01.0355,-0.00258064270019531,0,
00:00:01.036,-0.00257492065429688,0,
00:00:01.0365,-0.00257492065429688,0,
00:00:01.037,-0.00256919860839844,0,
00:00:01.0375,-0.00256919860839844,0,
00:00:01.038,-0.0025634765625,0,
00:00:01.0385,-0.00256919860839844,0,
00:00:01.039,-0.00258636474609375,0,
00:00:01.0395,-0.00259780883789063,0,
00:00:01.04,-0.00260353088378906,0,
00:00:01.0405,-0.00261497497558594,0,
00:00:01.041,-0.00263214111328125,0,
00:00:01.0415,-0.002655029296875,0,
00:00:01.042,-0.00268363952636719,0,
00:00:01.0425,-0.00272941589355469,0,
00:00:01.043,-0.00277519226074219,0,
00:00:01.0435,-0.00280380249023438,0,
00:00:01.044,-0.00282669067382813,0,
00:00:01.0445,-0.00284385681152344,0,
00:00:01.045,-0.00285530090332031,0,
00:00:01.0455,-0.00285530090332031,0,
00:00:01.046,-0.00286102294921875,0,
00:00:01.0465,-0.00284957885742188,0,
00:00:01.047,-0.00282096862792969,0,
00:00:01.0475,-0.00278663635253906,0,
00:00:01.048,-0.00275802612304688,0,
00:00:01.0485,-0.00272941589355469,0,
00:00:01.049,-0.00270652770996094,0,
00:00:01.0495,-0.00267791748046875,0,
00:00:01.05,-0.00269508361816406,0,
00:00:01.0505,-0.00258636474609375,0,
00:00:01.051,-0.00258636474609375,0,
00:00:01.0515,-0.00260353088378906,0,
00:00:01.052,-0.00254058837890625,0,
00:00:01.0525,-0.00255203247070313,0,
00:00:01.053,-0.00255775451660156,0,
00:00:01.0535,-0.0025634765625,0,
00:00:01.054,-0.00256919860839844,0,
00:00:01.0545,-0.00256919860839844,0,
00:00:01.055,-0.00257492065429688,0,
00:00:01.0555,-0.00258636474609375,0,
00:00:01.056,-0.00259780883789063,0,
00:00:01.0565,-0.0026092529296875,0,
00:00:01.057,-0.00262069702148438,0,
00:00:01.0575,-0.00263214111328125,0,
00:00:01.058,-0.00264358520507813,0,
00:00:01.0585,-0.00266647338867188,0,
00:00:01.059,-0.00270652770996094,0,
00:00:01.0595,-0.00274658203125,0,
00:00:01.06,-0.00278091430664063,0,
00:00:01.0605,-0.00280380249023438,0,
00:00:01.061,-0.00282669067382813,0,
00:00:01.0615,-0.00284957885742188,0,
00:00:01.062,-0.00286674499511719,0,
00:00:01.0625,-0.00287818908691406,0,
00:00:01.063,-0.00287818908691406,0,
00:00:01.0635,-0.00285530090332031,0,
00:00:01.064,-0.00281524658203125,0,
00:00:01.0645,-0.00278663635253906,0,
00:00:01.065,-0.00275230407714844,0,
00:00:01.0655,-0.00271797180175781,0,
00:00:01.066,-0.00271224975585938,0,
00:00:01.0665,-0.00267219543457031,0,
00:00:01.067,-0.00256919860839844,0,
00:00:01.0675,-0.00259780883789063,0,
00:00:01.068,-0.00254058837890625,0,
00:00:01.0685,-0.00252342224121094,0,
00:00:01.069,-0.00254058837890625,0,
00:00:01.0695,-0.00255203247070313,0,
00:00:01.07,-0.00255775451660156,0,
00:00:01.0705,-0.0025634765625,0,
00:00:01.071,-0.00259780883789063,0,
00:00:01.0715,-0.00260353088378906,0,
00:00:01.072,-0.00255203247070313,0,
00:00:01.0725,-0.00262069702148438,0,
00:00:01.073,-0.00256919860839844,0,
00:00:01.0735,-0.0025634765625,0,
00:00:01.074,-0.00259208679199219,0,
00:00:01.0745,-0.00261497497558594,0,
00:00:01.075,-0.00264358520507813,0,
00:00:01.0755,-0.00268363952636719,0,
00:00:01.076,-0.00275230407714844,0,
00:00:01.0765,-0.00276947021484375,0,
00:00:01.077,-0.00277519226074219,0,
00:00:01.0775,-0.00280380249023438,0,
00:00:01.078,-0.00283241271972656,0,
00:00:01.0785,-0.00284385681152344,0,
00:00:01.079,-0.00285530090332031,0,
00:00:01.0795,-0.00286674499511719,0,
00:00:01.08,-0.00289535522460938,0,
00:00:01.0805,-0.0027923583984375,0,
00:00:01.081,-0.00277519226074219,0,
00:00:01.0815,-0.00276374816894531,0,
00:00:01.082,-0.00267219543457031,0,
00:00:01.0825,-0.002655029296875,0,
00:00:01.083,-0.00263214111328125,0,
00:00:01.0835,-0.00260353088378906,0,
00:00:01.084,-0.00256919860839844,0,
00:00:01.0845,-0.0025634765625,0,
00:00:01.085,-0.00255775451660156,0,
00:00:01.0855,-0.00255203247070313,0,
00:00:01.086,-0.00255203247070313,0,
00:00:01.0865,-0.00255203247070313,0,
00:00:01.087,-0.00255203247070313,0,
00:00:01.0875,-0.00255203247070313,0,
00:00:01.088,-0.00255203247070313,0,
00:00:01.0885,-0.0025634765625,0,
00:00:01.089,-0.00258064270019531,0,
00:00:01.0895,-0.00260353088378906,0,
00:00:01.09,-0.00267219543457031,0,
00:00:01.0905,-0.00260353088378906,0,
00:00:01.091,-0.00258636474609375,0,
00:00:01.0915,-0.00262069702148438,0,
00:00:01.092,-0.00266075134277344,0,
00:00:01.0925,-0.00271224975585938,0,
00:00:01.093,-0.00275230407714844,0,
00:00:01.0935,-0.00278663635253906,0,
00:00:01.094,-0.00280952453613281,0,
00:00:01.0945,-0.00282669067382813,0,
00:00:01.095,-0.00284385681152344,0,
00:00:01.0955,-0.00284957885742188,0,
00:00:01.096,-0.00285530090332031,0,
00:00:01.0965,-0.00284957885742188,0,
00:00:01.097,-0.00281524658203125,0,
00:00:01.0975,-0.00278091430664063,0,
00:00:01.098,-0.00275230407714844,0,
00:00:01.0985,-0.00275802612304688,0,
00:00:01.099,-0.00272369384765625,0,
00:00:01.0995,-0.00261497497558594,0,
00:00:01.1,-0.00258636474609375,0,
00:00:01.1005,-0.00255775451660156,0,
00:00:01.101,-0.00254631042480469,0,
00:00:01.1015,-0.00255203247070313,0,
00:00:01.102,-0.00255203247070313,0,
00:00:01.1025,-0.00254631042480469,0,
00:00:01.103,-0.00254058837890625,0,
00:00:01.1035,-0.00254058837890625,0,
00:00:01.104,-0.00254058837890625,0,
00:00:01.1045,-0.00254631042480469,0,
00:00:01.105,-0.00259780883789063,0,
00:00:01.1055,-0.00254058837890625,0,
00:00:01.106,-0.00253486633300781,0,
00:00:01.1065,-0.00255203247070313,0,
00:00:01.107,-0.00256919860839844,0,
00:00:01.1075,-0.00259208679199219,0,
00:00:01.108,-0.0026092529296875,0,
00:00:01.1085,-0.00266075134277344,0,
00:00:01.109,-0.00268936157226563,0,
00:00:01.1095,-0.00271797180175781,0,
00:00:01.11,-0.00275802612304688,0,
00:00:01.1105,-0.0027923583984375,0,
00:00:01.111,-0.00282096862792969,0,
00:00:01.1115,-0.00284385681152344,0,
00:00:01.112,-0.00286674499511719,0,
00:00:01.1125,-0.00291824340820313,0,
00:00:01.113,-0.00284957885742188,0,
00:00:01.1135,-0.00280380249023438,0,
00:00:01.114,-0.00278091430664063,0,
00:00:01.1145,-0.00275802612304688,0,
00:00:01.115,-0.00272369384765625,0,
00:00:01.1155,-0.00268936157226563,0,
00:00:01.116,-0.002655029296875,0,
00:00:01.1165,-0.00261497497558594,0,
00:00:01.117,-0.00258064270019531,0,
00:00:01.1175,-0.00255775451660156,0,
00:00:01.118,-0.00255775451660156,0,
00:00:01.1185,-0.00255775451660156,0,
00:00:01.119,-0.00255203247070313,0,
00:00:01.1195,-0.00255203247070313,0,
00:00:01.12,-0.00254631042480469,0,
00:00:01.1205,-0.00255203247070313,0,
00:00:01.121,-0.00259208679199219,0,
00:00:01.1215,-0.00259780883789063,0,
00:00:01.122,-0.00253486633300781,0,
00:00:01.1225,-0.00255203247070313,0,
00:00:01.123,-0.00257492065429688,0,
00:00:01.1235,-0.00259208679199219,0,
00:00:01.124,-0.0026092529296875,0,
00:00:01.1245,-0.00262641906738281,0,
00:00:01.125,-0.00264358520507813,0,
00:00:01.1255,-0.00267791748046875,0,
00:00:01.126,-0.00272369384765625,0,
00:00:01.1265,-0.00275802612304688,0,
00:00:01.127,-0.00278663635253906,0,
00:00:01.1275,-0.00280952453613281,0,
00:00:01.128,-0.00283241271972656,0,
00:00:01.1285,-0.00284385681152344,0,
00:00:01.129,-0.00285530090332031,0,
00:00:01.1295,-0.00286102294921875,0,
00:00:01.13,-0.00289535522460938,0,
00:00:01.1305,-0.00278663635253906,0,
00:00:01.131,-0.00273513793945313,0,
00:00:01.1315,-0.00272369384765625,0,
00:00:01.132,-0.0027008056640625,0,
00:00:01.1325,-0.00267219543457031,0,
00:00:01.133,-0.00263214111328125,0,
00:00:01.1335,-0.00259208679199219,0,
00:00:01.134,-0.00255775451660156,0,
00:00:01.1345,-0.00255203247070313,0,
00:00:01.135,-0.00254631042480469,0,
00:00:01.1355,-0.00254631042480469,0,
00:00:01.136,-0.00258064270019531,0,
00:00:01.1365,-0.00257492065429688,0,
00:00:01.137,-0.00251197814941406,0,
00:00:01.1375,-0.00252342224121094,0,
00:00:01.138,-0.00254058837890625,0,
00:00:01.1385,-0.0025634765625,0,
00:00:01.139,-0.00258636474609375,0,
00:00:01.1395,-0.00260353088378906,0,
00:00:01.14,-0.00263786315917969,0,
00:00:01.1405,-0.00259780883789063,0,
00:00:01.141,-0.00261497497558594,0,
00:00:01.1415,-0.00263786315917969,0,
00:00:01.142,-0.00266647338867188,0,
00:00:01.1425,-0.00271224975585938,0,
00:00:01.143,-0.00275230407714844,0,
00:00:01.1435,-0.00278091430664063,0,
00:00:01.144,-0.00280952453613281,0,
00:00:01.1445,-0.002838134765625,0,
00:00:01.145,-0.00291252136230469,0,
00:00:01.1455,-0.00284385681152344,0,
00:00:01.146,-0.00282669067382813,0,
00:00:01.1465,-0.00282669067382813,0,
00:00:01.147,-0.00280952453613281,0,
00:00:01.1475,-0.00278091430664063,0,
00:00:01.148,-0.00275230407714844,0,
00:00:01.1485,-0.00272369384765625,0,
00:00:01.149,-0.00268363952636719,0,
00:00:01.1495,-0.00264358520507813,0,
00:00:01.15,-0.0026092529296875,0,
00:00:01.1505,-0.00256919860839844,0,
00:00:01.151,-0.00255203247070313,0,
00:00:01.1515,-0.00255203247070313,0,
00:00:01.152,-0.00255203247070313,0,
00:00:01.1525,-0.00255203247070313,0,
00:00:01.153,-0.00254631042480469,0,
00:00:01.1535,-0.00254631042480469,0,
00:00:01.154,-0.00254631042480469,0,
00:00:01.1545,-0.00254631042480469,0,
00:00:01.155,-0.00255775451660156,0,
00:00:01.1555,-0.00256919860839844,0,
00:00:01.156,-0.00258064270019531,0,
00:00:01.1565,-0.00259208679199219,0,
00:00:01.157,-0.00260353088378906,0,
00:00:01.1575,-0.00261497497558594,0,
00:00:01.158,-0.00263786315917969,0,
00:00:01.1585,-0.00266647338867188,0,
00:00:01.159,-0.00271224975585938,0,
00:00:01.1595,-0.00275230407714844,0,
00:00:01.16,-0.00278091430664063,0,
00:00:01.1605,-0.00280380249023438,0,
00:00:01.161,-0.00282096862792969,0,
00:00:01.1615,-0.002838134765625,0,
00:00:01.162,-0.00284957885742188,0,
00:00:01.1625,-0.00284957885742188,0,
00:00:01.163,-0.00284385681152344,0,
00:00:01.1635,-0.00282096862792969,0,
00:00:01.164,-0.00278663635253906,0,
00:00:01.1645,-0.00275802612304688,0,
00:00:01.165,-0.00272941589355469,0,
00:00:01.1655,-0.0027008056640625,0,
00:00:01.166,-0.00266075134277344,0,
00:00:01.1665,-0.00262641906738281,0,
00:00:01.167,-0.00258636474609375,0,
00:00:01.1675,-0.00256919860839844,0,
00:00:01.168,-0.00256919860839844,0,
00:00:01.1685,-0.0025634765625,0,
00:00:01.169,-0.0025634765625,0,
00:00:01.1695,-0.0025634765625,0,
00:00:01.17,-0.0025634765625,0,
00:00:01.1705,-0.00255775451660156,0,
00:00:01.171,-0.00259780883789063,0,
00:00:01.1715,-0.00260353088378906,0,
00:00:01.172,-0.00254058837890625,0,
00:00:01.1725,-0.0026092529296875,0,
00:00:01.173,-0.0025634765625,0,
00:00:01.1735,-0.00256919860839844,0,
00:00:01.174,-0.00259780883789063,0,
00:00:01.1745,-0.00262641906738281,0,
00:00:01.175,-0.002655029296875,0,
00:00:01.1755,-0.0027008056640625,0,
00:00:01.176,-0.00274658203125,0,
00:00:01.1765,-0.00278091430664063,0,
00:00:01.177,-0.00280380249023438,0,
00:00:01.1775,-0.00282669067382813,0,
00:00:01.178,-0.00284957885742188,0,
00:00:01.1785,-0.00285530090332031,0,
00:00:01.179,-0.00286102294921875,0,
00:00:01.1795,-0.00286102294921875,0,
00:00:01.18,-0.002838134765625,0,
00:00:01.1805,-0.00279808044433594,0,
00:00:01.181,-0.00276947021484375,0,
00:00:01.1815,-0.00273513793945313,0,
00:00:01.182,-0.0027008056640625,0,
00:00:01.1825,-0.00266075134277344,0,
00:00:01.183,-0.00262069702148438,0,
00:00:01.1835,-0.00258636474609375,0,
00:00:01.184,-0.00255203247070313,0,
00:00:01.1845,-0.00254631042480469,0,
00:00:01.185,-0.00254631042480469,0,
00:00:01.1855,-0.00254631042480469,0,
00:00:01.186,-0.00254631042480469,0,
00:00:01.1865,-0.00255203247070313,0,
00:00:01.187,-0.0025634765625,0,
00:00:01.1875,-0.00261497497558594,0,
00:00:01.188,-0.00254631042480469,0,
00:00:01.1885,-0.00256919860839844,0,
00:00:01.189,-0.00259780883789063,0,
00:00:01.1895,-0.00255775451660156,0,
00:00:01.19,-0.00263214111328125,0,
00:00:01.1905,-0.00259208679199219,0,
00:00:01.191,-0.00262641906738281,0,
00:00:01.1915,-0.00266647338867188,0,
00:00:01.192,-0.00264930725097656,0,
00:00:01.1925,-0.00275802612304688,0,
00:00:01.193,-0.00274085998535156,0,
00:00:01.1935,-0.00275802612304688,0,
00:00:01.194,-0.00280380249023438,0,
00:00:01.1945,-0.00283241271972656,0,
00:00:01.195,-0.00285530090332031,0,
00:00:01.1955,-0.00286102294921875,0,
00:00:01.196,-0.00286674499511719,0,
00:00:01.1965,-0.00285530090332031,0,
00:00:01.197,-0.00282096862792969,0,
00:00:01.1975,-0.00278663635253906,0,
00:00:01.198,-0.00275802612304688,0,
00:00:01.1985,-0.00272369384765625,0,
00:00:01.199,-0.00268936157226563,0,
00:00:01.1995,-0.00264358520507813,0,
00:00:01.2,-0.00260353088378906,0,
00:00:01.2005,-0.0025634765625,0,
00:00:01.201,-0.00258636474609375,0,
00:00:01.2015,-0.00258636474609375,0,
00:00:01.202,-0.00250053405761719,0,
00:00:01.2025,-0.00250625610351563,0,
00:00:01.203,-0.0025177001953125,0,
00:00:01.2035,-0.00252914428710938,0,
00:00:01.204,-0.00253486633300781,0,
00:00:01.2045,-0.00254631042480469,0,
00:00:01.205,-0.00257492065429688,0,
00:00:01.2055,-0.00255775451660156,0,
00:00:01.206,-0.00256919860839844,0,
00:00:01.2065,-0.00258636474609375,0,
00:00:01.207,-0.0026092529296875,0,
00:00:01.2075,-0.00262641906738281,0,
00:00:01.208,-0.00264358520507813,0,
00:00:01.2085,-0.00270652770996094,0,
00:00:01.209,-0.00275230407714844,0,
00:00:01.2095,-0.00271224975585938,0,
00:00:01.21,-0.00275230407714844,0,
00:00:01.2105,-0.0027923583984375,0,
00:00:01.211,-0.00282096862792969,0,
00:00:01.2115,-0.00284385681152344,0,
00:00:01.212,-0.00285530090332031,0,
00:00:01.2125,-0.00286674499511719,0,
00:00:01.213,-0.00286102294921875,0,
00:00:01.2135,-0.00283241271972656,0,
00:00:01.214,-0.00279808044433594,0,
00:00:01.2145,-0.00276947021484375,0,
00:00:01.215,-0.00274085998535156,0,
00:00:01.2155,-0.00271224975585938,0,
00:00:01.216,-0.00267219543457031,0,
00:00:01.2165,-0.00263786315917969,0,
00:00:01.217,-0.00260353088378906,0,
00:00:01.2175,-0.00263214111328125,0,
00:00:01.218,-0.00255203247070313,0,
00:00:01.2185,-0.00252914428710938,0,
00:00:01.219,-0.00253486633300781,0,
00:00:01.2195,-0.00254058837890625,0,
00:00:01.22,-0.00254058837890625,0,
00:00:01.2205,-0.00254631042480469,0,
00:00:01.221,-0.00254631042480469,0,
00:00:01.2215,-0.00255203247070313,0,
00:00:01.222,-0.00256919860839844,0,
00:00:01.2225,-0.00258064270019531,0,
00:00:01.223,-0.00258636474609375,0,
00:00:01.2235,-0.00259780883789063,0,
00:00:01.224,-0.0026092529296875,0,
00:00:01.2245,-0.00263214111328125,0,
00:00:01.225,-0.002655029296875,0,
00:00:01.2255,-0.00269508361816406,0,
00:00:01.226,-0.00278091430664063,0,
00:00:01.2265,-0.00280952453613281,0,
00:00:01.227,-0.00276374816894531,0,
00:00:01.2275,-0.00279808044433594,0,
00:00:01.228,-0.00283241271972656,0,
00:00:01.2285,-0.00285530090332031,0,
00:00:01.229,-0.00286674499511719,0,
00:00:01.2295,-0.00286674499511719,0,
00:00:01.23,-0.00284957885742188,0,
00:00:01.2305,-0.00281524658203125,0,
00:00:01.231,-0.00278091430664063,0,
00:00:01.2315,-0.00275230407714844,0,
00:00:01.232,-0.00272941589355469,0,
00:00:01.2325,-0.00274658203125,0,
00:00:01.233,-0.00262641906738281,0,
00:00:01.2335,-0.00255775451660156,0,
00:00:01.234,-0.00254058837890625,0,
00:00:01.2345,-0.00255203247070313,0,
00:00:01.235,-0.00255775451660156,0,
00:00:01.2355,-0.00255775451660156,0,
00:00:01.236,-0.00258064270019531,0,
00:00:01.2365,-0.00255775451660156,0,
00:00:01.237,-0.00254058837890625,0,
00:00:01.2375,-0.00254058837890625,0,
00:00:01.238,-0.00255203247070313,0,
00:00:01.2385,-0.0025634765625,0,
00:00:01.239,-0.00257492065429688,0,
00:00:01.2395,-0.00259208679199219,0,
00:00:01.24,-0.00266075134277344,0,
00:00:01.2405,-0.00259208679199219,0,
00:00:01.241,-0.00258064270019531,0,
00:00:01.2415,-0.00261497497558594,0,
00:00:01.242,-0.00266075134277344,0,
00:00:01.2425,-0.00271224975585938,0,
00:00:01.243,-0.00275802612304688,0,
00:00:01.2435,-0.00278663635253906,0,
00:00:01.244,-0.00280952453613281,0,
00:00:01.2445,-0.00283241271972656,0,
00:00:01.245,-0.00284385681152344,0,
00:00:01.2455,-0.00285530090332031,0,
00:00:01.246,-0.00286102294921875,0,
00:00:01.2465,-0.00284957885742188,0,
00:00:01.247,-0.00282096862792969,0,
00:00:01.2475,-0.00279808044433594,0,
00:00:01.248,-0.00276947021484375,0,
00:00:01.2485,-0.00277519226074219,0,
00:00:01.249,-0.00274085998535156,0,
00:00:01.2495,-0.00262641906738281,0,
00:00:01.25,-0.00259780883789063,0,
00:00:01.2505,-0.0025634765625,0,
00:00:01.251,-0.00255775451660156,0,
00:00:01.2515,-0.0025634765625,0,
00:00:01.252,-0.0025634765625,0,
00:00:01.2525,-0.0025634765625,0,
00:00:01.253,-0.0025634765625,0,
00:00:01.2535,-0.0025634765625,0,
00:00:01.254,-0.00256919860839844,0,
00:00:01.2545,-0.00256919860839844,0,
00:00:01.255,-0.00258064270019531,0,
00:00:01.2555,-0.00259780883789063,0,
00:00:01.256,-0.00260353088378906,0,
00:00:01.2565,-0.00261497497558594,0,
00:00:01.257,-0.00263214111328125,0,
00:00:01.2575,-0.00269508361816406,0,
00:00:01.258,-0.00264358520507813,0,
00:00:01.2585,-0.00264930725097656,0,
00:00:01.259,-0.0027008056640625,0,
00:00:01.2595,-0.00274658203125,0,
00:00:01.26,-0.00278091430664063,0,
00:00:01.2605,-0.00280380249023438,0,
00:00:01.261,-0.00282669067382813,0,
00:00:01.2615,-0.002838134765625,0,
00:00:01.262,-0.00284957885742188,0,
00:00:01.2625,-0.00286102294921875,0,
00:00:01.263,-0.00284957885742188,0,
00:00:01.2635,-0.00282096862792969,0,
00:00:01.264,-0.0027923583984375,0,
00:00:01.2645,-0.00276374816894531,0,
00:00:01.265,-0.00273513793945313,0,
00:00:01.2655,-0.00270652770996094,0,
00:00:01.266,-0.00271224975585938,0,
00:00:01.2665,-0.00267791748046875,0,
00:00:01.267,-0.0025634765625,0,
00:00:01.2675,-0.00255203247070313,0,
00:00:01.268,-0.00255775451660156,0,
00:00:01.2685,-0.00255775451660156,0,
00:00:01.269,-0.0025634765625,0,
00:00:01.2695,-0.00255775451660156,0,
00:00:01.27,-0.00255775451660156,0,
00:00:01.2705,-0.0025634765625,0,
00:00:01.271,-0.0025634765625,0,
00:00:01.2715,-0.00256919860839844,0,
00:00:01.272,-0.00258064270019531,0,
00:00:01.2725,-0.00259208679199219,0,
00:00:01.273,-0.00259780883789063,0,
00:00:01.2735,-0.0026092529296875,0,
00:00:01.274,-0.00262069702148438,0,
00:00:01.2745,-0.00263786315917969,0,
00:00:01.275,-0.00266075134277344,0,
00:00:01.2755,-0.0027008056640625,0,
00:00:01.276,-0.00274658203125,0,
00:00:01.2765,-0.00278091430664063,0,
00:00:01.277,-0.00280952453613281,0,
00:00:01.2775,-0.00282669067382813,0,
00:00:01.278,-0.00284385681152344,0,
00:00:01.2785,-0.00285530090332031,0,
00:00:01.279,-0.00286102294921875,0,
00:00:01.2795,-0.00285530090332031,0,
00:00:01.28,-0.00283241271972656,0,
00:00:01.2805,-0.00278663635253906,0,
00:00:01.281,-0.00275802612304688,0,
00:00:01.2815,-0.00272369384765625,0,
00:00:01.282,-0.00268936157226563,0,
00:00:01.2825,-0.002655029296875,0,
00:00:01.283,-0.00261497497558594,0,
00:00:01.2835,-0.00257492065429688,0,
00:00:01.284,-0.00254631042480469,0,
00:00:01.2845,-0.00254631042480469,0,
00:00:01.285,-0.00255203247070313,0,
00:00:01.2855,-0.00254631042480469,0,
00:00:01.286,-0.00254631042480469,0,
00:00:01.2865,-0.00254631042480469,0,
00:00:01.287,-0.00255203247070313,0,
00:00:01.2875,-0.00255775451660156,0,
00:00:01.288,-0.0025634765625,0,
00:00:01.2885,-0.00257492065429688,0,
00:00:01.289,-0.00258636474609375,0,
00:00:01.2895,-0.00259780883789063,0,
00:00:01.29,-0.00260353088378906,0,
00:00:01.2905,-0.00261497497558594,0,
00:00:01.291,-0.00263214111328125,0,
00:00:01.2915,-0.00264930725097656,0,
00:00:01.292,-0.00268363952636719,0,
00:00:01.2925,-0.00272941589355469,0,
00:00:01.293,-0.00276374816894531,0,
00:00:01.2935,-0.0027923583984375,0,
00:00:01.294,-0.00281524658203125,0,
00:00:01.2945,-0.00284385681152344,0,
00:00:01.295,-0.00291252136230469,0,
00:00:01.2955,-0.002838134765625,0,
00:00:01.296,-0.00285530090332031,0,
00:00:01.2965,-0.00284957885742188,0,
00:00:01.297,-0.00274658203125,0,
00:00:01.2975,-0.00273513793945313,0,
00:00:01.298,-0.00272941589355469,0,
00:00:01.2985,-0.00271224975585938,0,
00:00:01.299,-0.00268363952636719,0,
00:00:01.2995,-0.00264930725097656,0,
00:00:01.3,-0.00261497497558594,0,
00:00:01.3005,-0.00257492065429688,0,
00:00:01.301,-0.0025634765625,0,
00:00:01.3015,-0.0025634765625,0,
00:00:01.302,-0.0025634765625,0,
00:00:01.3025,-0.00255775451660156,0,
00:00:01.303,-0.00255203247070313,0,
00:00:01.3035,-0.00255203247070313,0,
00:00:01.304,-0.00255203247070313,0,
00:00:01.3045,-0.00255775451660156,0,
00:00:01.305,-0.00262069702148438,0,
00:00:01.3055,-0.00256919860839844,0,
00:00:01.306,-0.00259208679199219,0,
00:00:01.3065,-0.00261497497558594,0,
00:00:01.307,-0.0025634765625,0,
00:00:01.3075,-0.00259208679199219,0,
00:00:01.308,-0.00262641906738281,0,
00:00:01.3085,-0.00269508361816406,0,
00:00:01.309,-0.00274658203125,0,
00:00:01.3095,-0.00272941589355469,0,
00:00:01.31,-0.00278663635253906,0,
00:00:01.3105,-0.00278091430664063,0,
00:00:01.311,-0.00280952453613281,0,
00:00:01.3115,-0.002838134765625,0,
00:00:01.312,-0.00286102294921875,0,
00:00:01.3125,-0.00292396545410156,0,
00:00:01.313,-0.002838134765625,0,
00:00:01.3135,-0.00278091430664063,0,
00:00:01.314,-0.00275802612304688,0,
00:00:01.3145,-0.00274085998535156,0,
00:00:01.315,-0.00271224975585938,0,
00:00:01.3155,-0.00268363952636719,0,
00:00:01.316,-0.00264358520507813,0,
00:00:01.3165,-0.0026092529296875,0,
00:00:01.317,-0.00256919860839844,0,
00:00:01.3175,-0.00255203247070313,0,
00:00:01.318,-0.00255203247070313,0,
00:00:01.3185,-0.00255203247070313,0,
00:00:01.319,-0.00255203247070313,0,
00:00:01.3195,-0.00255203247070313,0,
00:00:01.32,-0.00255203247070313,0,
00:00:01.3205,-0.00255203247070313,0,
00:00:01.321,-0.00259208679199219,0,
00:00:01.3215,-0.00259780883789063,0,
00:00:01.322,-0.00252914428710938,0,
00:00:01.3225,-0.00255203247070313,0,
00:00:01.323,-0.00257492065429688,0,
00:00:01.3235,-0.00259208679199219,0,
00:00:01.324,-0.0026092529296875,0,
00:00:01.3245,-0.00263214111328125,0,
00:00:01.325,-0.002655029296875,0,
00:00:01.3255,-0.0027008056640625,0,
00:00:01.326,-0.00274085998535156,0,
00:00:01.3265,-0.00277519226074219,0,
00:00:01.327,-0.00280380249023438,0,
00:00:01.3275,-0.00282096862792969,0,
00:00:01.328,-0.00283241271972656,0,
00:00:01.3285,-0.00284385681152344,0,
00:00:01.329,-0.00284385681152344,0,
00:00:01.3295,-0.00284957885742188,0,
00:00:01.33,-0.00287246704101563,0,
00:00:01.3305,-0.00276374816894531,0,
00:00:01.331,-0.00270652770996094,0,
00:00:01.3315,-0.00268936157226563,0,
00:00:01.332,-0.00266647338867188,0,
00:00:01.3325,-0.00263214111328125,0,
00:00:01.333,-0.00260353088378906,0,
00:00:01.3335,-0.00258636474609375,0,
00:00:01.334,-0.00254631042480469,0,
00:00:01.3345,-0.00252342224121094,0,
00:00:01.335,-0.00252914428710938,0,
00:00:01.3355,-0.00253486633300781,0,
00:00:01.336,-0.00256919860839844,0,
00:00:01.3365,-0.00258064270019531,0,
00:00:01.337,-0.00251197814941406,0,
00:00:01.3375,-0.00252342224121094,0,
00:00:01.338,-0.00253486633300781,0,
00:00:01.3385,-0.00255775451660156,0,
00:00:01.339,-0.00256919860839844,0,
00:00:01.3395,-0.00258064270019531,0,
00:00:01.34,-0.00259780883789063,0,
00:00:01.3405,-0.0026092529296875,0,
00:00:01.341,-0.00262069702148438,0,
00:00:01.3415,-0.00263786315917969,0,
00:00:01.342,-0.00267219543457031,0,
00:00:01.3425,-0.00271797180175781,0,
00:00:01.343,-0.00275802612304688,0,
00:00:01.3435,-0.00278091430664063,0,
00:00:01.344,-0.00279808044433594,0,
00:00:01.3445,-0.00282096862792969,0,
00:00:01.345,-0.00287246704101563,0,
00:00:01.3455,-0.00280952453613281,0,
00:00:01.346,-0.0027923583984375,0,
00:00:01.3465,-0.0027923583984375,0,
00:00:01.347,-0.00276374816894531,0,
00:00:01.3475,-0.00274085998535156,0,
00:00:01.348,-0.00271797180175781,0,
00:00:01.3485,-0.00269508361816406,0,
00:00:01.349,-0.00266647338867188,0,
00:00:01.3495,-0.00263214111328125,0,
00:00:01.35,-0.00259208679199219,0,
00:00:01.3505,-0.00255775451660156,0,
00:00:01.351,-0.00255203247070313,0,
00:00:01.3515,-0.00254631042480469,0,
00:00:01.352,-0.00254631042480469,0,
00:00:01.3525,-0.00254631042480469,0,
00:00:01.353,-0.00254631042480469,0,
00:00:01.3535,-0.00258064270019531,0,
00:00:01.354,-0.00258064270019531,0,
00:00:01.3545,-0.0025177001953125,0,
00:00:01.355,-0.00253486633300781,0,
00:00:01.3555,-0.00255775451660156,0,
00:00:01.356,-0.00257492065429688,0,
00:00:01.3565,-0.00259208679199219,0,
00:00:01.357,-0.00260353088378906,0,
00:00:01.3575,-0.00262641906738281,0,
00:00:01.358,-0.00264358520507813,0,
00:00:01.3585,-0.00267219543457031,0,
00:00:01.359,-0.00271797180175781,0,
00:00:01.3595,-0.00276374816894531,0,
00:00:01.36,-0.00284957885742188,0,
00:00:01.3605,-0.00279808044433594,0,
00:00:01.361,-0.00279808044433594,0,
00:00:01.3615,-0.00282669067382813,0,
00:00:01.362,-0.00284385681152344,0,
00:00:01.3625,-0.00284957885742188,0,
00:00:01.363,-0.00284385681152344,0,
00:00:01.3635,-0.00283241271972656,0,
00:00:01.364,-0.00278091430664063,0,
00:00:01.3645,-0.00273513793945313,0,
00:00:01.365,-0.00271224975585938,0,
00:00:01.3655,-0.00267791748046875,0,
00:00:01.366,-0.00263214111328125,0,
00:00:01.3665,-0.00259780883789063,0,
00:00:01.367,-0.00256919860839844,0,
00:00:01.3675,-0.00255203247070313,0,
00:00:01.368,-0.00255203247070313,0,
00:00:01.3685,-0.00258636474609375,0,
00:00:01.369,-0.00258064270019531,0,
00:00:01.3695,-0.00251197814941406,0,
00:00:01.37,-0.0025177001953125,0,
00:00:01.3705,-0.00252914428710938,0,
00:00:01.371,-0.00253486633300781,0,
00:00:01.3715,-0.00254631042480469,0,
00:00:01.372,-0.0025634765625,0,
00:00:01.3725,-0.00256919860839844,0,
00:00:01.373,-0.00258064270019531,0,
00:00:01.3735,-0.00259208679199219,0,
00:00:01.374,-0.00260353088378906,0,
00:00:01.3745,-0.00262069702148438,0,
00:00:01.375,-0.00264930725097656,0,
00:00:01.3755,-0.00269508361816406,0,
00:00:01.376,-0.00273513793945313,0,
00:00:01.3765,-0.00276947021484375,0,
00:00:01.377,-0.00280380249023438,0,
00:00:01.3775,-0.0028839111328125,0,
00:00:01.378,-0.00281524658203125,0,
00:00:01.3785,-0.00280380249023438,0,
00:00:01.379,-0.00282669067382813,0,
00:00:01.3795,-0.00282669067382813,0,
00:00:01.38,-0.00280952453613281,0,
00:00:01.3805,-0.00277519226074219,0,
00:00:01.381,-0.00274658203125,0,
00:00:01.3815,-0.00271797180175781,0,
00:00:01.382,-0.00268936157226563,0,
00:00:01.3825,-0.00264930725097656,0,
00:00:01.383,-0.00261497497558594,0,
00:00:01.3835,-0.00257492065429688,0,
00:00:01.384,-0.00254058837890625,0,
00:00:01.3845,-0.00254058837890625,0,
00:00:01.385,-0.00254058837890625,0,
00:00:01.3855,-0.00254058837890625,0,
00:00:01.386,-0.00253486633300781,0,
00:00:01.3865,-0.00253486633300781,0,
00:00:01.387,-0.00253486633300781,0,
00:00:01.3875,-0.00253486633300781,0,
00:00:01.388,-0.00254631042480469,0,
00:00:01.3885,-0.0025634765625,0,
00:00:01.389,-0.00258064270019531,0,
00:00:01.3895,-0.00259208679199219,0,
00:00:01.39,-0.00259780883789063,0,
00:00:01.3905,-0.0026092529296875,0,
00:00:01.391,-0.00262069702148438,0,
00:00:01.3915,-0.00264358520507813,0,
00:00:01.392,-0.00267791748046875,0,
00:00:01.3925,-0.00272369384765625,0,
00:00:01.393,-0.00275802612304688,0,
00:00:01.3935,-0.00278091430664063,0,
00:00:01.394,-0.00279808044433594,0,
00:00:01.3945,-0.00281524658203125,0,
00:00:01.395,-0.00282669067382813,0,
00:00:01.3955,-0.00282669067382813,0,
00:00:01.396,-0.00283241271972656,0,
00:00:01.3965,-0.00281524658203125,0,
00:00:01.397,-0.00278091430664063,0,
00:00:01.3975,-0.00274658203125,0,
00:00:01.398,-0.00271797180175781,0,
00:00:01.3985,-0.00268363952636719,0,
00:00:01.399,-0.00264930725097656,0,
00:00:01.3995,-0.0026092529296875,0,
00:00:01.4,-0.00257492065429688,0,
00:00:01.4005,-0.00254631042480469,0,
00:00:01.401,-0.00254058837890625,0,
00:00:01.4015,-0.00254631042480469,0,
00:00:01.402,-0.00255775451660156,0,
00:00:01.4025,-0.0026092529296875,0,
00:00:01.403,-0.00254631042480469,0,
00:00:01.4035,-0.00256919860839844,0,
00:00:01.404,-0.00258064270019531,0,
00:00:01.4045,-0.00251197814941406,0,
00:00:01.405,-0.00253486633300781,0,
00:00:01.4055,-0.00255775451660156,0,
00:00:01.406,-0.00257492065429688,0,
00:00:01.4065,-0.00258636474609375,0,
00:00:01.407,-0.00259780883789063,0,
00:00:01.4075,-0.0026092529296875,0,
00:00:01.408,-0.00262641906738281,0,
00:00:01.4085,-0.00266075134277344,0,
00:00:01.409,-0.00270652770996094,0,
00:00:01.4095,-0.00274658203125,0,
00:00:01.41,-0.00277519226074219,0,
00:00:01.4105,-0.00279808044433594,0,
00:00:01.411,-0.00281524658203125,0,
00:00:01.4115,-0.00283241271972656,0,
00:00:01.412,-0.002838134765625,0,
00:00:01.4125,-0.00284385681152344,0,
00:00:01.413,-0.00282669067382813,0,
00:00:01.4135,-0.0027923583984375,0,
00:00:01.414,-0.00276374816894531,0,
00:00:01.4145,-0.00273513793945313,0,
00:00:01.415,-0.0027008056640625,0,
00:00:01.4155,-0.00267219543457031,0,
00:00:01.416,-0.00263214111328125,0,
00:00:01.4165,-0.00259208679199219,0,
00:00:01.417,-0.00255203247070313,0,
00:00:01.4175,-0.00254058837890625,0,
00:00:01.418,-0.00254058837890625,0,
00:00:01.4185,-0.00253486633300781,0,
00:00:01.419,-0.00253486633300781,0,
00:00:01.4195,-0.00252342224121094,0,
00:00:01.42,-0.00252342224121094,0,
00:00:01.4205,-0.00252914428710938,0,
00:00:01.421,-0.00252342224121094,0,
00:00:01.4215,-0.00253486633300781,0,
00:00:01.422,-0.00255203247070313,0,
00:00:01.4225,-0.00261497497558594,0,
00:00:01.423,-0.00255203247070313,0,
00:00:01.4235,-0.00257492065429688,0,
00:00:01.424,-0.00261497497558594,0,
00:00:01.4245,-0.00256919860839844,0,
00:00:01.425,-0.00261497497558594,0,
00:00:01.4255,-0.00268363952636719,0,
00:00:01.426,-0.00274085998535156,0,
00:00:01.4265,-0.00278091430664063,0,
00:00:01.427,-0.00281524658203125,0,
00:00:01.4275,-0.00287818908691406,0,
00:00:01.428,-0.00282669067382813,0,
00:00:01.4285,-0.00284957885742188,0,
00:00:01.429,-0.00286674499511719,0,
00:00:01.4295,-0.0027923583984375,0,
00:00:01.43,-0.00277519226074219,0,
00:00:01.4305,-0.00275802612304688,0,
00:00:01.431,-0.00273513793945313,0,
00:00:01.4315,-0.00271224975585938,0,
00:00:01.432,-0.00268936157226563,0,
00:00:01.4325,-0.00269508361816406,0,
00:00:01.433,-0.00259208679199219,0,
00:00:01.4335,-0.00252914428710938,0,
00:00:01.434,-0.00252342224121094,0,
00:00:01.4345,-0.00252914428710938,0,
00:00:01.435,-0.00252914428710938,0,
00:00:01.4355,-0.00252914428710938,0,
00:00:01.436,-0.00252914428710938,0,
00:00:01.4365,-0.00252914428710938,0,
00:00:01.437,-0.00252914428710938,0,
00:00:01.4375,-0.00252914428710938,0,
00:00:01.438,-0.00254058837890625,0,
00:00:01.4385,-0.00255203247070313,0,
00:00:01.439,-0.0025634765625,0,
00:00:01.4395,-0.00256919860839844,0,
00:00:01.44,-0.00258064270019531,0,
00:00:01.4405,-0.00259208679199219,0,
00:00:01.441,-0.00264358520507813,0,
00:00:01.4415,-0.00266647338867188,0,
00:00:01.442,-0.00263214111328125,0,
00:00:01.4425,-0.00268363952636719,0,
00:00:01.443,-0.00272941589355469,0,
00:00:01.4435,-0.00276374816894531,0,
00:00:01.444,-0.00278663635253906,0,
00:00:01.4445,-0.00280952453613281,0,
00:00:01.445,-0.00282096862792969,0,
00:00:01.4455,-0.00283241271972656,0,
00:00:01.446,-0.00282669067382813,0,
00:00:01.4465,-0.00280380249023438,0,
00:00:01.447,-0.00276947021484375,0,
00:00:01.4475,-0.00273513793945313,0,
00:00:01.448,-0.00270652770996094,0,
00:00:01.4485,-0.00267219543457031,0,
00:00:01.449,-0.00263786315917969,0,
00:00:01.4495,-0.0026092529296875,0,
00:00:01.45,-0.00262069702148438,0,
00:00:01.4505,-0.00252342224121094,0,
00:00:01.451,-0.00250053405761719,0,
00:00:01.4515,-0.00250625610351563,0,
00:00:01.452,-0.00251197814941406,0,
00:00:01.4525,-0.0025177001953125,0,
00:00:01.453,-0.0025177001953125,0,
00:00:01.4535,-0.00252342224121094,0,
00:00:01.454,-0.00252914428710938,0,
00:00:01.4545,-0.00253486633300781,0,
00:00:01.455,-0.00254631042480469,0,
00:00:01.4555,-0.00255775451660156,0,
00:00:01.456,-0.0026092529296875,0,
00:00:01.4565,-0.00262069702148438,0,
00:00:01.457,-0.00255203247070313,0,
00:00:01.4575,-0.00257492065429688,0,
00:00:01.458,-0.00260353088378906,0,
00:00:01.4585,-0.00264358520507813,0,
00:00:01.459,-0.00269508361816406,0,
00:00:01.4595,-0.00274085998535156,0,
00:00:01.46,-0.00278663635253906,0,
00:00:01.4605,-0.00276947021484375,0,
00:00:01.461,-0.00278663635253906,0,
00:00:01.4615,-0.00280380249023438,0,
00:00:01.462,-0.00281524658203125,0,
00:00:01.4625,-0.00282096862792969,0,
00:00:01.463,-0.00280952453613281,0,
00:00:01.4635,-0.00277519226074219,0,
00:00:01.464,-0.00274085998535156,0,
00:00:01.4645,-0.00272369384765625,0,
00:00:01.465,-0.00275230407714844,0,
00:00:01.4655,-0.00263786315917969,0,
00:00:01.466,-0.00258064270019531,0,
00:00:01.4665,-0.0025634765625,0,
00:00:01.467,-0.00252914428710938,0,
00:00:01.4675,-0.00252342224121094,0,
00:00:01.468,-0.00252342224121094,0,
00:00:01.4685,-0.00252342224121094,0,
00:00:01.469,-0.00252342224121094,0,
00:00:01.4695,-0.00252342224121094,0,
00:00:01.47,-0.00252342224121094,0,
00:00:01.4705,-0.00252342224121094,0,
00:00:01.471,-0.00252914428710938,0,
00:00:01.4715,-0.00254058837890625,0,
00:00:01.472,-0.00255203247070313,0,
00:00:01.4725,-0.0025634765625,0,
00:00:01.473,-0.00256919860839844,0,
00:00:01.4735,-0.00261497497558594,0,
00:00:01.474,-0.00262641906738281,0,
00:00:01.4745,-0.00257492065429688,0,
00:00:01.475,-0.0026092529296875,0,
00:00:01.4755,-0.00266647338867188,0,
00:00:01.476,-0.00270652770996094,0,
00:00:01.4765,-0.00273513793945313,0,
00:00:01.477,-0.00276374816894531,0,
00:00:01.4775,-0.00278663635253906,0,
00:00:01.478,-0.00280380249023438,0,
00:00:01.4785,-0.00281524658203125,0,
00:00:01.479,-0.00282096862792969,0,
00:00:01.4795,-0.00282096862792969,0,
00:00:01.48,-0.00279808044433594,0,
00:00:01.4805,-0.00276374816894531,0,
00:00:01.481,-0.00273513793945313,0,
00:00:01.4815,-0.00270652770996094,0,
00:00:01.482,-0.00267219543457031,0,
00:00:01.4825,-0.00263214111328125,0,
00:00:01.483,-0.00259208679199219,0,
00:00:01.4835,-0.00254631042480469,0,
00:00:01.484,-0.0025177001953125,0,
00:00:01.4845,-0.00251197814941406,0,
00:00:01.485,-0.00251197814941406,0,
00:00:01.4855,-0.00250625610351563,0,
00:00:01.486,-0.00250625610351563,0,
00:00:01.4865,-0.00250625610351563,0,
00:00:01.487,-0.00250625610351563,0,
00:00:01.4875,-0.00250625610351563,0,
00:00:01.488,-0.0025177001953125,0,
00:00:01.4885,-0.00253486633300781,0,
00:00:01.489,-0.00255775451660156,0,
00:00:01.4895,-0.00258064270019531,0,
00:00:01.49,-0.00259208679199219,0,
00:00:01.4905,-0.0026092529296875,0,
00:00:01.491,-0.00263214111328125,0,
00:00:01.4915,-0.002655029296875,0,
00:00:01.492,-0.00268936157226563,0,
00:00:01.4925,-0.00272941589355469,0,
00:00:01.493,-0.00276374816894531,0,
00:00:01.4935,-0.0027923583984375,0,
00:00:01.494,-0.00280952453613281,0,
00:00:01.4945,-0.00282669067382813,0,
00:00:01.495,-0.00283241271972656,0,
00:00:01.4955,-0.00284385681152344,0,
00:00:01.496,-0.002838134765625,0,
00:00:01.4965,-0.00281524658203125,0,
00:00:01.497,-0.00277519226074219,0,
00:00:01.4975,-0.00274085998535156,0,
00:00:01.498,-0.00271224975585938,0,
00:00:01.4985,-0.00271224975585938,0,
00:00:01.499,-0.00267791748046875,0,
00:00:01.4995,-0.00258636474609375,0,
00:00:01.5,-0.00260353088378906,0,
00:00:01.5005,-0.0025177001953125,0,
00:00:01.501,-0.00250053405761719,0,
00:00:01.5015,-0.0025177001953125,0,
00:00:01.502,-0.00252342224121094,0,
00:00:01.5025,-0.00252342224121094,0,
00:00:01.503,-0.00252914428710938,0,
00:00:01.5035,-0.00252342224121094,0,
00:00:01.504,-0.00252914428710938,0,
00:00:01.5045,-0.00253486633300781,0,
00:00:01.505,-0.00254631042480469,0,
00:00:01.5055,-0.00255203247070313,0,
00:00:01.506,-0.0025634765625,0,
00:00:01.5065,-0.00256919860839844,0,
00:00:01.507,-0.00258636474609375,0,
00:00:01.5075,-0.00259780883789063,0,
00:00:01.508,-0.00262069702148438,0,
00:00:01.5085,-0.002655029296875,0,
00:00:01.509,-0.0027008056640625,0,
00:00:01.5095,-0.00273513793945313,0,
00:00:01.51,-0.00276374816894531,0,
00:00:01.5105,-0.00278663635253906,0,
00:00:01.511,-0.00280380249023438,0,
00:00:01.5115,-0.00281524658203125,0,
00:00:01.512,-0.00282096862792969,0,
00:00:01.5125,-0.00282096862792969,0,
00:00:01.513,-0.00280380249023438,0,
00:00:01.5135,-0.00276947021484375,0,
00:00:01.514,-0.00274085998535156,0,
00:00:01.5145,-0.00270652770996094,0,
00:00:01.515,-0.00267791748046875,0,
00:00:01.5155,-0.00264358520507813,0,
00:00:01.516,-0.00260353088378906,0,
00:00:01.5165,-0.0025634765625,0,
00:00:01.517,-0.00252342224121094,0,
00:00:01.5175,-0.00251197814941406,0,
00:00:01.518,-0.00251197814941406,0,
00:00:01.5185,-0.00251197814941406,0,
00:00:01.519,-0.00250625610351563,0,
00:00:01.5195,-0.00250053405761719,0,
00:00:01.52,-0.00250053405761719,0,
00:00:01.5205,-0.00250053405761719,0,
00:00:01.521,-0.00250625610351563,0,
00:00:01.5215,-0.0025177001953125,0,
00:00:01.522,-0.00253486633300781,0,
00:00:01.5225,-0.00254631042480469,0,
00:00:01.523,-0.00255775451660156,0,
00:00:01.5235,-0.00256919860839844,0,
00:00:01.524,-0.00258636474609375,0,
00:00:01.5245,-0.00260353088378906,0,
00:00:01.525,-0.00263786315917969,0,
00:00:01.5255,-0.00268936157226563,0,
00:00:01.526,-0.00278091430664063,0,
00:00:01.5265,-0.00281524658203125,0,
00:00:01.527,-0.00276947021484375,0,
00:00:01.5275,-0.00284385681152344,0,
00:00:01.528,-0.00280380249023438,0,
00:00:01.5285,-0.00278663635253906,0,
00:00:01.529,-0.00280380249023438,0,
00:00:01.5295,-0.00279808044433594,0,
00:00:01.53,-0.00276947021484375,0,
00:00:01.5305,-0.00273513793945313,0,
00:00:01.531,-0.0027008056640625,0,
00:00:01.5315,-0.00267219543457031,0,
00:00:01.532,-0.00263214111328125,0,
00:00:01.5325,-0.00259208679199219,0,
00:00:01.533,-0.00255203247070313,0,
00:00:01.5335,-0.00251197814941406,0,
00:00:01.534,-0.00249481201171875,0,
00:00:01.5345,-0.00249481201171875,0,
00:00:01.535,-0.00250625610351563,0,
00:00:01.5355,-0.00250625610351563,0,
00:00:01.536,-0.00251197814941406,0,
00:00:01.5365,-0.00252342224121094,0,
00:00:01.537,-0.00253486633300781,0,
00:00:01.5375,-0.00254058837890625,0,
00:00:01.538,-0.00255203247070313,0,
00:00:01.5385,-0.0025634765625,0,
00:00:01.539,-0.00256919860839844,0,
00:00:01.5395,-0.00257492065429688,0,
00:00:01.54,-0.00258064270019531,0,
00:00:01.5405,-0.00259208679199219,0,
00:00:01.541,-0.00260353088378906,0,
00:00:01.5415,-0.00262641906738281,0,
00:00:01.542,-0.00266647338867188,0,
00:00:01.5425,-0.00271224975585938,0,
00:00:01.543,-0.00274085998535156,0,
00:00:01.5435,-0.00276947021484375,0,
00:00:01.544,-0.00278663635253906,0,
00:00:01.5445,-0.00280380249023438,0,
00:00:01.545,-0.00280952453613281,0,
00:00:01.5455,-0.00281524658203125,0,
00:00:01.546,-0.00284957885742188,0,
00:00:01.5465,-0.00282096862792969,0,
00:00:01.547,-0.00271797180175781,0,
00:00:01.5475,-0.00275230407714844,0,
00:00:01.548,-0.002655029296875,0,
00:00:01.5485,-0.0026092529296875,0,
00:00:01.549,-0.00259208679199219,0,
00:00:01.5495,-0.00256919860839844,0,
00:00:01.55,-0.00253486633300781,0,
00:00:01.5505,-0.00251197814941406,0,
00:00:01.551,-0.00255203247070313,0,
00:00:01.5515,-0.00255203247070313,0,
00:00:01.552,-0.00247764587402344,0,
00:00:01.5525,-0.00248908996582031,0,
00:00:01.553,-0.00250053405761719,0,
00:00:01.5535,-0.00254058837890625,0,
00:00:01.554,-0.00254058837890625,0,
00:00:01.5545,-0.00248336791992188,0,
00:00:01.555,-0.0025634765625,0,
00:00:01.5555,-0.00250625610351563,0,
00:00:01.556,-0.00253486633300781,0,
00:00:01.5565,-0.0025634765625,0,
00:00:01.557,-0.00250625610351563,0,
00:00:01.5575,-0.00253486633300781,0,
00:00:01.558,-0.00256919860839844,0,
00:00:01.5585,-0.00261497497558594,0,
00:00:01.559,-0.00266075134277344,0,
00:00:01.5595,-0.00270652770996094,0,
00:00:01.56,-0.00278663635253906,0,
00:00:01.5605,-0.00273513793945313,0,
00:00:01.561,-0.00273513793945313,0,
00:00:01.5615,-0.00276947021484375,0,
00:00:01.562,-0.00278663635253906,0,
00:00:01.5625,-0.00279808044433594,0,
00:00:01.563,-0.00278663635253906,0,
00:00:01.5635,-0.00275230407714844,0,
00:00:01.564,-0.00272941589355469,0,
00:00:01.5645,-0.0027008056640625,0,
00:00:01.565,-0.00267791748046875,0,
00:00:01.5655,-0.00263786315917969,0,
00:00:01.566,-0.00259780883789063,0,
00:00:01.5665,-0.00255775451660156,0,
00:00:01.567,-0.00251197814941406,0,
00:00:01.5675,-0.00250053405761719,0,
00:00:01.568,-0.00250053405761719,0,
00:00:01.5685,-0.00252914428710938,0,
00:00:01.569,-0.00252914428710938,0,
