Elapsed Time,EMGBICEP,BioRadio Event,
00:00:00,-2.44890451431274,0,
00:00:00.0005,-1.77704668045044,0,
00:00:00.001,-1.19532537460327,0,
00:00:00.0015,-0.702853798866272,0,
00:00:00.002,-0.327367216348648,0,
00:00:00.0025,-0.0171858016401529,0,
00:00:00.003,0.23370449244976,0,
00:00:00.0035,0.431282758712769,0,
00:00:00.004,0.581446170806885,0,
00:00:00.0045,0.684940814971924,0,
00:00:00.005,0.758696913719177,0,
00:00:00.0055,0.791505455970764,0,
00:00:00.006,0.801095306873322,0,
00:00:00.0065,0.786814987659454,0,
00:00:00.007,0.764028251171112,0,
00:00:00.0075,0.734863638877869,0,
00:00:00.008,0.691188454627991,0,
00:00:00.0085,0.637281060218811,0,
00:00:00.009,0.576786637306213,0,
00:00:00.0095,0.502694845199585,0,
00:00:00.01,0.430104166269302,0,
00:00:00.0105,0.375583946704865,0,
00:00:00.011,0.331194013357162,0,
00:00:00.0115,0.295424669981003,0,
00:00:00.012,0.271722763776779,0,
00:00:00.0125,0.247141227126122,0,
00:00:00.013,0.226612523198128,0,
00:00:00.0135,0.208601742982864,0,
00:00:00.014,0.201708346605301,0,
00:00:00.0145,0.202001750469208,0,
00:00:00.015,0.191025540232658,0,
00:00:00.0155,0.164838328957558,0,
00:00:00.016,0.13084489107132,0,
00:00:00.0165,0.0949788466095924,0,
00:00:00.017,0.0568962693214417,0,
00:00:00.0175,0.00646411161869764,0,
00:00:00.018,-0.043508019298315,0,
00:00:00.0185,-0.123120427131653,0,
00:00:00.019,-0.209192872047424,0,
00:00:00.0195,-0.293403148651123,0,
00:00:00.02,-0.404171019792557,0,
00:00:00.0205,-0.391526728868485,0,
00:00:00.021,-0.47473669052124,0,
00:00:00.0215,-0.528182744979858,0,
00:00:00.022,-0.500948250293732,0,
00:00:00.0225,-0.571845769882202,0,
00:00:00.023,-0.61925345659256,0,
00:00:00.0235,-0.645385086536407,0,
00:00:00.024,-0.657374739646912,0,
00:00:00.0245,-0.655953586101532,0,
00:00:00.025,-0.692166984081268,0,
00:00:00.0255,-0.598297238349915,0,
00:00:00.026,-0.560446202754974,0,
00:00:00.0265,-0.559608638286591,0,
00:00:00.027,-0.534965455532074,0,
00:00:00.0275,-0.480706870555878,0,
00:00:00.028,-0.408494681119919,0,
00:00:00.0285,-0.353178679943085,0,
00:00:00.029,-0.240950092673302,0,
00:00:00.0295,-0.132492482662201,0,
00:00:00.03,-0.0546565018594265,0,
00:00:00.0305,0.0327226705849171,0,
00:00:00.031,0.12983763217926,0,
00:00:00.0315,0.216162800788879,0,
00:00:00.032,0.275950342416763,0,
00:00:00.0325,0.28762349486351,0,
00:00:00.033,0.401507079601288,0,
00:00:00.0335,0.443924754858017,0,
00:00:00.034,0.443877071142197,0,
00:00:00.0345,0.439975768327713,0,
00:00:00.035,0.4068683385849,0,
00:00:00.0355,0.35613426566124,0,
00:00:00.036,0.317433476448059,0,
00:00:00.0365,0.273234993219376,0,
00:00:00.037,0.235483810305595,0,
00:00:00.0375,0.193275719881058,0,
00:00:00.038,0.15359078347683,0,
00:00:00.0385,0.116880320012569,0,
00:00:00.039,0.0785498544573784,0,
00:00:00.0395,0.0402889102697372,0,
00:00:00.04,0.00855801533907652,0,
00:00:00.0405,-0.0117480410262942,0,
00:00:00.041,-0.0321757830679417,0,
00:00:00.0415,-0.0464877299964428,0,
00:00:00.042,-0.0650913417339325,0,
00:00:00.0425,-0.0757747441530228,0,
00:00:00.043,-0.0944846719503403,0,
00:00:00.0435,-0.108177848160267,0,
00:00:00.044,-0.0969757810235024,0,
00:00:00.0445,-0.0815491154789925,0,
00:00:00.045,-0.0579664781689644,0,
00:00:00.0455,-0.0336197316646576,0,
00:00:00.046,-0.00432334234938025,0,
00:00:00.0465,0.032846175134182,0,
00:00:00.047,0.0747283548116684,0,
00:00:00.0475,0.123612478375435,0,
00:00:00.048,0.170856177806854,0,
00:00:00.0485,0.199679791927338,0,
00:00:00.049,0.217696741223335,0,
00:00:00.0495,0.231022372841835,0,
00:00:00.05,0.244465842843056,0,
00:00:00.0505,0.236615270376205,0,
00:00:00.051,0.226793140172958,0,
00:00:00.0515,0.204883679747581,0,
00:00:00.052,0.148496255278587,0,
00:00:00.0525,0.0967845544219017,0,
00:00:00.053,0.0497769042849541,0,
00:00:00.0535,0.0125302011147141,0,
00:00:00.054,-0.0262697711586952,0,
00:00:00.0545,-0.060086153447628,0,
00:00:00.055,-0.0839116871356964,0,
00:00:00.0555,-0.114159777760506,0,
00:00:00.056,-0.1731968075037,0,
00:00:00.0565,-0.206975176930428,0,
00:00:00.057,-0.124390244483948,0,
00:00:00.0575,-0.144957646727562,0,
00:00:00.058,-0.173492297530174,0,
00:00:00.0585,-0.226825654506683,0,
00:00:00.059,-0.221740379929543,0,
00:00:00.0595,-0.166229858994484,0,
00:00:00.06,-0.198527500033379,0,
00:00:00.0605,-0.206567734479904,0,
00:00:00.061,-0.185184225440025,0,
00:00:00.0615,-0.161457598209381,0,
00:00:00.062,-0.126262485980988,0,
00:00:00.0625,-0.0880777835845947,0,
00:00:00.063,-0.0486025735735893,0,
00:00:00.0635,-0.00928672309964895,0,
00:00:00.064,0.0437159724533558,0,
00:00:00.0645,0.0854102000594139,0,
00:00:00.065,0.0817619189620018,0,
00:00:00.0655,0.188587933778763,0,
00:00:00.066,0.211169824004173,0,
00:00:00.0665,0.202917277812958,0,
00:00:00.067,0.200833678245544,0,
00:00:00.0675,0.188065409660339,0,
00:00:00.068,0.172089412808418,0,
00:00:00.0685,0.108628250658512,0,
00:00:00.069,0.0856047943234444,0,
00:00:00.0695,0.0691620707511902,0,
00:00:00.07,0.0331195145845413,0,
00:00:00.0705,0.00316463247872889,0,
00:00:00.071,-0.0161107275635004,0,
00:00:00.0715,-0.0314825959503651,0,
00:00:00.072,-0.0482486411929131,0,
00:00:00.0725,-0.110563397407532,0,
00:00:00.073,-0.0451992750167847,0,
00:00:00.0735,-0.0389539934694767,0,
00:00:00.074,-0.0631782189011574,0,
00:00:00.0745,-0.0748478919267654,0,
00:00:00.075,-0.0864073410630226,0,
00:00:00.0755,-0.0873628333210945,0,
00:00:00.076,-0.100088134407997,0,
00:00:00.0765,-0.116356365382671,0,
00:00:00.077,-0.124709762632847,0,
00:00:00.0775,-0.111552909016609,0,
00:00:00.078,-0.0871716886758804,0,
00:00:00.0785,-0.0648785904049873,0,
00:00:00.079,-0.0448581092059612,0,
00:00:00.0795,-0.0171806551516056,0,
00:00:00.08,0.000436384172644466,0,
00:00:00.0805,0.0347937978804111,0,
00:00:00.081,0.0457568615674973,0,
00:00:00.0815,0.0884635150432587,0,
00:00:00.082,0.174237251281738,0,
00:00:00.0825,0.169891327619553,0,
00:00:00.083,0.161353006958961,0,
00:00:00.0835,0.159688740968704,0,
00:00:00.084,0.153173699975014,0,
00:00:00.0845,0.148028567433357,0,
00:00:00.085,0.113902181386948,0,
00:00:00.0855,0.0735424309968948,0,
00:00:00.086,0.0346717275679111,0,
00:00:00.0865,0.00827088113874197,0,
00:00:00.087,-0.00758365634828806,0,
00:00:00.0875,-0.0247136801481247,0,
00:00:00.088,-0.0371224172413349,0,
00:00:00.0885,-0.0453731566667557,0,
00:00:00.089,-0.0550716668367386,0,
00:00:00.0895,-0.0655022487044334,0,
00:00:00.09,-0.0711085200309753,0,
00:00:00.0905,-0.0678009167313576,0,
00:00:00.091,-0.0678068548440933,0,
00:00:00.0915,-0.0654248222708702,0,
00:00:00.092,-0.0664198622107506,0,
00:00:00.0925,-0.0701379626989365,0,
00:00:00.093,-0.0910655483603477,0,
00:00:00.0935,-0.104684121906757,0,
00:00:00.094,-0.102361120283604,0,
00:00:00.0945,-0.0929722040891647,0,
00:00:00.095,-0.0785275846719742,0,
00:00:00.0955,-0.0607143640518188,0,
00:00:00.096,-0.0358990728855133,0,
00:00:00.0965,-0.0165392626076937,0,
00:00:00.097,0.00302411220036447,0,
00:00:00.0975,0.0422234423458576,0,
00:00:00.098,0.0752806663513184,0,
00:00:00.0985,0.092595562338829,0,
00:00:00.099,0.102338179945946,0,
00:00:00.0995,0.111061185598373,0,
00:00:00.1,0.123875215649605,0,
00:00:00.1005,0.124540977180004,0,
00:00:00.101,0.116012461483479,0,
00:00:00.1015,0.0958491787314415,0,
00:00:00.102,0.0625574663281441,0,
00:00:00.1025,0.0304784160107374,0,
00:00:00.103,0.0106379250064492,0,
00:00:00.1035,-0.00390487140975893,0,
00:00:00.104,-0.0236939191818237,0,
00:00:00.1045,-0.0266098771244287,0,
00:00:00.105,-0.0313379652798176,0,
00:00:00.1055,-0.0372203625738621,0,
00:00:00.106,-0.043796993792057,0,
00:00:00.1065,-0.0457538291811943,0,
00:00:00.107,-0.0542775429785252,0,
00:00:00.1075,-0.087880827486515,0,
00:00:00.108,-0.00952776055783033,0,
00:00:00.1085,-0.0234204046428204,0,
00:00:00.109,-0.0380351431667805,0,
00:00:00.1095,-0.0130646275356412,0,
00:00:00.11,-0.0542150586843491,0,
00:00:00.1105,-0.0751600563526154,0,
00:00:00.111,-0.0702469423413277,0,
00:00:00.1115,-0.0659595057368279,0,
00:00:00.112,-0.0575041435658932,0,
00:00:00.1125,-0.0412557572126389,0,
00:00:00.113,-0.0196149218827486,0,
00:00:00.1135,-0.00456526968628168,0,
00:00:00.114,0.0250547789037228,0,
00:00:00.1145,0.0550356991589069,0,
00:00:00.115,0.0694689154624939,0,
00:00:00.1155,0.0767208337783813,0,
00:00:00.116,0.0835145935416222,0,
00:00:00.1165,0.0900820270180702,0,
00:00:00.117,0.0916398763656616,0,
00:00:00.1175,0.0897149667143822,0,
00:00:00.118,0.075573705136776,0,
00:00:00.1185,0.0428841672837734,0,
00:00:00.119,0.0124503951519728,0,
00:00:00.1195,-0.00479881232604384,0,
00:00:00.12,-0.015933083370328,0,
00:00:00.1205,-0.0266336370259523,0,
00:00:00.121,-0.0313274152576923,0,
00:00:00.1215,-0.031026927754283,0,
00:00:00.122,-0.0317975878715515,0,
00:00:00.1225,-0.0333784148097038,0,
00:00:00.123,-0.0356660187244415,0,
00:00:00.1235,-0.0286379642784595,0,
00:00:00.124,-0.0200354214757681,0,
00:00:00.1245,-0.0109510673210025,0,
00:00:00.125,-0.00233337888494134,0,
00:00:00.1255,1.11810413727653E-05,0,
00:00:00.126,-0.0132554415613413,0,
00:00:00.1265,-0.0337874852120876,0,
00:00:00.127,-0.0398447625339031,0,
00:00:00.1275,-0.0401716120541096,0,
00:00:00.128,-0.0365809090435505,0,
00:00:00.1285,-0.0305054318159819,0,
00:00:00.129,-0.0280477963387966,0,
00:00:00.1295,-0.0236465372145176,0,
00:00:00.13,-0.0179790649563074,0,
00:00:00.1305,-0.00144217535853386,0,
00:00:00.131,0.0281200688332319,0,
00:00:00.1315,0.0469726547598839,0,
00:00:00.132,0.0523218363523483,0,
00:00:00.1325,0.0525574460625649,0,
00:00:00.133,0.0543813891708851,0,
00:00:00.1335,0.0328676663339138,0,
00:00:00.134,0.0348614975810051,0,
00:00:00.1345,0.0856920257210732,0,
00:00:00.135,0.00258482433855534,0,
00:00:00.1355,0.0354233123362064,0,
00:00:00.136,0.0216083507984877,0,
00:00:00.1365,-0.01707773655653,0,
00:00:00.137,-0.0380918830633163,0,
00:00:00.1375,-0.0444429591298103,0,
00:00:00.138,-0.0440208539366722,0,
00:00:00.1385,-0.0633161440491676,0,
00:00:00.139,-0.0469703748822212,0,
00:00:00.1395,0.0112370513379574,0,
00:00:00.14,-0.0459769107401371,0,
00:00:00.1405,0.0451596230268478,0,
00:00:00.141,0.0613514445722103,0,
00:00:00.1415,0.0386743396520615,0,
00:00:00.142,0.0160237140953541,0,
00:00:00.1425,-0.0469419434666634,0,
00:00:00.143,0.0157455950975418,0,
00:00:00.1435,-0.00827265158295631,0,
00:00:00.144,-0.0137313455343246,0,
00:00:00.1445,-0.0104581881314516,0,
00:00:00.145,-0.0613775700330734,0,
00:00:00.1455,-0.00231633288785815,0,
00:00:00.146,0.00877736043184996,0,
00:00:00.1465,-0.0125489067286253,0,
00:00:00.147,-0.0180571898818016,0,
00:00:00.1475,-0.00104482634924352,0,
00:00:00.148,0.01300292275846,0,
00:00:00.1485,0.0147343762218952,0,
00:00:00.149,0.0125083746388555,0,
00:00:00.1495,0.0129938879981637,0,
00:00:00.15,0.0213357340544462,0,
00:00:00.1505,0.0262587331235409,0,
00:00:00.151,0.0342750139534473,0,
00:00:00.1515,0.0252031479030848,0,
00:00:00.152,-0.000931779912207276,0,
00:00:00.1525,-0.0185275059193373,0,
00:00:00.153,-0.0332892164587975,0,
00:00:00.1535,-0.0698491334915161,0,
00:00:00.154,-0.0562559999525547,0,
00:00:00.1545,0.0210302043706179,0,
00:00:00.155,0.0146753620356321,0,
00:00:00.1555,0.00936023611575365,0,
00:00:00.156,0.00478242756798863,0,
00:00:00.1565,0.00554487155750394,0,
00:00:00.157,0.00985378213226795,0,
00:00:00.1575,0.0210955906659365,0,
00:00:00.158,0.0264786891639233,0,
00:00:00.1585,0.0312912911176682,0,
00:00:00.159,0.0244946200400591,0,
00:00:00.1595,-0.00207472941838205,0,
00:00:00.16,-0.0691132694482803,0,
00:00:00.1605,-0.000493259867653251,0,
00:00:00.161,0.0140496203675866,0,
00:00:00.1615,-0.00917073711752892,0,
00:00:00.162,-0.0161787401884794,0,
00:00:00.1625,-0.0209692530333996,0,
00:00:00.163,-0.0191368274390697,0,
00:00:00.1635,-0.0374182611703873,0,
00:00:00.164,-0.000220157875446603,0,
00:00:00.1645,0.0386863462626934,0,
00:00:00.165,0.0379988886415958,0,
00:00:00.1655,0.0274956151843071,0,
00:00:00.166,0.0204944591969252,0,
00:00:00.1665,0.0222482215613127,0,
00:00:00.167,0.021568987518549,0,
00:00:00.1675,0.0149954194203019,0,
00:00:00.168,0.0101036308333278,0,
00:00:00.1685,-0.052577082067728,0,
00:00:00.169,-0.0614675208926201,0,
00:00:00.1695,0.00236078049056232,0,
00:00:00.17,-0.0245488453656435,0,
00:00:00.1705,-0.0395357012748718,0,
00:00:00.171,-0.0394085496664047,0,
00:00:00.1715,-0.0323823876678944,0,
00:00:00.172,-0.0151533810421824,0,
00:00:00.1725,-0.0108037423342466,0,
00:00:00.173,0.00323357619345188,0,
00:00:00.1735,-0.016396302729845,0,
00:00:00.174,0.0132408626377583,0,
00:00:00.1745,0.104111164808273,0,
00:00:00.175,0.0877057239413261,0,
00:00:00.1755,0.0683613792061806,0,
00:00:00.176,0.0160120278596878,0,
00:00:00.1765,-0.00609005196020007,0,
00:00:00.177,0.0398607291281223,0,
00:00:00.1775,0.0203511323779821,0,
00:00:00.178,0.000359123630914837,0,
00:00:00.1785,-0.00507457880303264,0,
00:00:00.179,-0.00972391292452812,0,
00:00:00.1795,-0.0189932435750961,0,
00:00:00.18,-0.0266506038606167,0,
00:00:00.1805,-0.0176932457834482,0,
00:00:00.181,-0.0059717814438045,0,
00:00:00.1815,0.00297396956011653,0,
00:00:00.182,0.0001129453885369,0,
00:00:00.1825,-0.0109507068991661,0,
00:00:00.183,-0.0119941458106041,0,
00:00:00.1835,-0.00926415994763374,0,
00:00:00.184,-0.0126334223896265,0,
00:00:00.1845,-0.0244648028165102,0,
00:00:00.185,-0.096500851213932,0,
00:00:00.1855,-0.0258158091455698,0,
00:00:00.186,-0.0170374996960163,0,
00:00:00.1865,-0.040204644203186,0,
00:00:00.187,-0.0463582798838615,0,
00:00:00.1875,-0.0386576727032661,0,
00:00:00.188,-0.0251724757254124,0,
00:00:00.1885,-0.00749826803803444,0,
00:00:00.189,0.00774759473279119,0,
00:00:00.1895,0.0203245412558317,0,
00:00:00.19,0.0349203459918499,0,
00:00:00.1905,0.0498544499278069,0,
00:00:00.191,0.0686586797237396,0,
00:00:00.1915,0.0737028568983078,0,
00:00:00.192,0.0718046426773071,0,
00:00:00.1925,0.063345730304718,0,
00:00:00.193,0.0337626151740551,0,
00:00:00.1935,-0.0123865781351924,0,
00:00:00.194,-0.0157540757209063,0,
00:00:00.1945,0.0380547717213631,0,
00:00:00.195,0.0179631989449263,0,
00:00:00.1955,-0.0038493643514812,0,
00:00:00.196,-0.0167466048151255,0,
00:00:00.1965,-0.0226116292178631,0,
00:00:00.197,-0.0228690430521965,0,
00:00:00.1975,-0.0235762186348438,0,
00:00:00.198,0.0260375887155533,0,
00:00:00.1985,0.0181253422051668,0,
00:00:00.199,0.00209497264586389,0,
00:00:00.1995,-0.00872209295630455,0,
00:00:00.2,-0.00408511934801936,0,
00:00:00.2005,-0.0116254976019263,0,
00:00:00.201,-0.012037648819387,0,
00:00:00.2015,-0.0308292917907238,0,
00:00:00.202,-0.0519625172019005,0,
00:00:00.2025,-0.0630807280540466,0,
00:00:00.203,-0.0701336041092873,0,
00:00:00.2035,-0.0679272636771202,0,
00:00:00.204,-0.0579499714076519,0,
00:00:00.2045,-0.0418039076030254,0,
00:00:00.205,-0.0211574472486973,0,
00:00:00.2055,-0.00271344045177102,0,
00:00:00.206,0.0131927905604243,0,
00:00:00.2065,0.0311486907303333,0,
00:00:00.207,0.0493716076016426,0,
00:00:00.2075,0.0662750750780106,0,
00:00:00.208,0.0754861682653427,0,
00:00:00.2085,0.0872616991400719,0,
00:00:00.209,0.0842380970716476,0,
00:00:00.2095,0.058497216552496,0,
00:00:00.21,0.0398132726550102,0,
00:00:00.2105,0.0258880723267794,0,
00:00:00.211,0.0199635662138462,0,
00:00:00.2115,0.00939655397087336,0,
00:00:00.212,-0.00517125846818089,0,
00:00:00.2125,-0.0128655852749944,0,
00:00:00.213,-0.020345825701952,0,
00:00:00.2135,-0.0274777933955193,0,
00:00:00.214,-0.0138485142961144,0,
00:00:00.2145,-0.00430897390469909,0,
00:00:00.215,-0.0076179220341146,0,
00:00:00.2155,-0.00985995400696993,0,
00:00:00.216,-0.0152455624192953,0,
00:00:00.2165,-0.0217580255120993,0,
00:00:00.217,-0.0226870086044073,0,
00:00:00.2175,-0.0230166707187891,0,
00:00:00.218,-0.0265888962894678,0,
00:00:00.2185,-0.0563663840293884,0,
00:00:00.219,-0.0740664526820183,0,
00:00:00.2195,-0.0807977095246315,0,
00:00:00.22,-0.0778820440173149,0,
00:00:00.2205,-0.0617980323731899,0,
00:00:00.221,-0.0455244779586792,0,
00:00:00.2215,-0.0242578964680433,0,
00:00:00.222,-0.00476730242371559,0,
00:00:00.2225,0.0175528805702925,0,
00:00:00.223,0.0358527190983295,0,
00:00:00.2235,0.0246608443558216,0,
00:00:00.224,0.0503937304019928,0,
00:00:00.2245,0.1227006316185,0,
00:00:00.225,0.0767623856663704,0,
00:00:00.2255,0.13052798807621,0,
00:00:00.226,0.117368124425411,0,
00:00:00.2265,0.0666881650686264,0,
00:00:00.227,0.0374851711094379,0,
00:00:00.2275,0.0144412480294704,0,
00:00:00.228,0.000830202712677419,0,
00:00:00.2285,-0.00592721160501242,0,
00:00:00.229,-0.0178390722721815,0,
00:00:00.2295,-0.0236726496368647,0,
00:00:00.23,-0.0297745242714882,0,
00:00:00.2305,-0.0257103592157364,0,
00:00:00.231,-0.0135580208152533,0,
00:00:00.2315,-0.0100024156272411,0,
00:00:00.232,-0.0173856783658266,0,
00:00:00.2325,-0.0269559621810913,0,
00:00:00.233,-0.031751211732626,0,
00:00:00.2335,-0.0264381337910891,0,
00:00:00.234,-0.0322457738220692,0,
00:00:00.2345,-0.0300164259970188,0,
00:00:00.235,-0.0554630756378174,0,
00:00:00.2355,-0.0750471204519272,0,
00:00:00.236,-0.0782781690359116,0,
00:00:00.2365,-0.0777893662452698,0,
00:00:00.237,-0.0685418844223022,0,
00:00:00.2375,-0.0471508353948593,0,
00:00:00.238,-0.0266994088888168,0,
00:00:00.2385,-0.0024526584893465,0,
00:00:00.239,0.0137717733159661,0,
00:00:00.2395,0.0279032737016678,0,
00:00:00.24,0.0493302941322327,0,
00:00:00.2405,0.0697635114192963,0,
00:00:00.241,0.0926841422915459,0,
00:00:00.2415,0.100447423756123,0,
00:00:00.242,0.104911722242832,0,
00:00:00.2425,0.100184626877308,0,
00:00:00.243,0.0719756186008453,0,
00:00:00.2435,0.0502264983952045,0,
00:00:00.244,0.0328165851533413,0,
00:00:00.2445,0.0281877219676971,0,
00:00:00.245,0.0175433084368706,0,
00:00:00.2455,0.00187621568329632,0,
00:00:00.246,-0.0126319862902164,0,
00:00:00.2465,-0.0260126013308764,0,
00:00:00.247,-0.0330323576927185,0,
00:00:00.2475,-0.0245749950408936,0,
00:00:00.248,-0.0189528446644545,0,
00:00:00.2485,-0.024940263479948,0,
00:00:00.249,-0.0336854979395866,0,
00:00:00.2495,-0.0431399121880531,0,
00:00:00.25,-0.0866941884160042,0,
00:00:00.2505,-0.0182488467544317,0,
00:00:00.251,-0.0349256657063961,0,
00:00:00.2515,-0.0549842938780785,0,
00:00:00.252,-0.0255151856690645,0,
00:00:00.2525,-0.063001960515976,0,
00:00:00.253,-0.0795103758573532,0,
00:00:00.2535,-0.0784299671649933,0,
00:00:00.254,-0.0630988404154778,0,
00:00:00.2545,-0.0468030385673046,0,
00:00:00.255,-0.0199960935860872,0,
00:00:00.2555,0.00397981889545918,0,
00:00:00.256,0.0246889851987362,0,
00:00:00.2565,0.0466369204223156,0,
00:00:00.257,0.0679807960987091,0,
00:00:00.2575,0.0921164155006409,0,
00:00:00.258,0.101309016346931,0,
00:00:00.2585,0.107325196266174,0,
00:00:00.259,0.104181967675686,0,
00:00:00.2595,0.0825204700231552,0,
00:00:00.26,0.0608510375022888,0,
00:00:00.2605,0.0485125333070755,0,
00:00:00.261,0.0324864909052849,0,
00:00:00.2615,0.0181137025356293,0,
00:00:00.262,0.00465612346306443,0,
00:00:00.2625,-0.00823520217090845,0,
00:00:00.263,-0.0205821245908737,0,
00:00:00.2635,-0.0371632352471352,0,
00:00:00.264,-0.036156639456749,0,
00:00:00.2645,-0.0261436756700277,0,
00:00:00.265,-0.0238159634172916,0,
00:00:00.2655,-0.0315497741103172,0,
00:00:00.266,-0.0406534522771835,0,
00:00:00.2665,-0.0392306372523308,0,
00:00:00.267,-0.0384223759174347,0,
00:00:00.2675,-0.0366970896720886,0,
00:00:00.268,-0.0379252210259438,0,
00:00:00.2685,-0.0600973591208458,0,
00:00:00.269,-0.076343335211277,0,
00:00:00.2695,-0.0863504484295845,0,
00:00:00.27,-0.125346526503563,0,
00:00:00.2705,-0.0340371206402779,0,
00:00:00.271,-0.0303511768579483,0,
00:00:00.2715,-0.018642395734787,0,
00:00:00.272,0.059087235480547,0,
00:00:00.2725,0.0544188059866428,0,
00:00:00.273,0.0510943345725536,0,
00:00:00.2735,0.0580680333077908,0,
00:00:00.274,0.0716817528009415,0,
00:00:00.2745,0.0837239474058151,0,
00:00:00.275,0.0877828225493431,0,
00:00:00.2755,0.0891145393252373,0,
00:00:00.276,0.0416283383965492,0,
00:00:00.2765,0.0318515598773956,0,
00:00:00.277,0.0751309245824814,0,
00:00:00.2775,0.00108670291956514,0,
00:00:00.278,0.0537546724081039,0,
00:00:00.2785,0.0157441757619381,0,
00:00:00.279,-0.0313067212700844,0,
00:00:00.2795,0.0462389625608921,0,
00:00:00.28,0.0113955158740282,0,
00:00:00.2805,-0.0133994203060865,0,
00:00:00.281,-0.0192821659147739,0,
00:00:00.2815,-0.0298513174057007,0,
00:00:00.282,-0.0528489425778389,0,
00:00:00.2825,-0.108692318201065,0,
00:00:00.283,-0.0412493199110031,0,
00:00:00.2835,0.00498191127553582,0,
00:00:00.284,-0.0203217323869467,0,
00:00:00.2845,-0.0433049649000168,0,
00:00:00.285,-0.117624066770077,0,
00:00:00.2855,-0.0621833391487598,0,
00:00:00.286,-0.0478458628058434,0,
00:00:00.2865,-0.0645067691802979,0,
00:00:00.287,-0.0635094568133354,0,
00:00:00.2875,-0.0533428341150284,0,
00:00:00.288,-0.0360530056059361,0,
00:00:00.2885,-0.0438214428722858,0,
00:00:00.289,-0.0206162352114916,0,
00:00:00.2895,0.0704399421811104,0,
00:00:00.29,0.0746632590889931,0,
00:00:00.2905,0.0811641067266464,0,
00:00:00.291,0.0929944515228271,0,
00:00:00.2915,0.102156192064285,0,
00:00:00.292,0.107490301132202,0,
00:00:00.2925,0.0981311202049255,0,
00:00:00.293,0.0711962580680847,0,
00:00:00.2935,0.0501813888549805,0,
00:00:00.294,0.0330513939261436,0,
00:00:00.2945,0.0233198739588261,0,
00:00:00.295,0.0136333666741848,0,
00:00:00.2955,-0.00143704283982515,0,
00:00:00.296,-0.0105926189571619,0,
00:00:00.2965,-0.0251237526535988,0,
00:00:00.297,-0.0382196046411991,0,
00:00:00.2975,-0.0745162665843964,0,
00:00:00.298,0.018647326156497,0,
00:00:00.2985,0.0237343236804008,0,
00:00:00.299,-0.00801792368292809,0,
00:00:00.2995,-0.0308826398104429,0,
00:00:00.3,-0.0398976430296898,0,
00:00:00.3005,-0.046616468578577,0,
00:00:00.301,-0.0649726092815399,0,
00:00:00.3015,-0.0651845335960388,0,
00:00:00.302,-0.0650956034660339,0,
00:00:00.3025,-0.0835744291543961,0,
00:00:00.303,-0.0845309868454933,0,
00:00:00.3035,-0.0810603126883507,0,
00:00:00.304,-0.0685398653149605,0,
00:00:00.3045,-0.0539843514561653,0,
00:00:00.305,-0.0732418969273567,0,
00:00:00.3055,0.0275408383458853,0,
00:00:00.306,0.0666604861617088,0,
00:00:00.3065,0.0664466023445129,0,
00:00:00.307,0.0801452845335007,0,
00:00:00.3075,0.0979157984256744,0,
00:00:00.308,0.106878288090229,0,
00:00:00.3085,0.112325496971607,0,
00:00:00.309,0.108333706855774,0,
00:00:00.3095,0.0856097340583801,0,
00:00:00.31,0.0577152632176876,0,
00:00:00.3105,0.0403934046626091,0,
00:00:00.311,0.0305530745536089,0,
00:00:00.3115,0.0157499182969332,0,
00:00:00.312,0.00686142547056079,0,
00:00:00.3125,-0.00774830207228661,0,
00:00:00.313,-0.0265525709837675,0,
00:00:00.3135,-0.0680389553308487,0,
00:00:00.314,-0.050085224211216,0,
00:00:00.3145,0.0337368920445442,0,
00:00:00.315,0.0108699379488826,0,
00:00:00.3155,-0.0171945504844189,0,
00:00:00.316,-0.0372603125870228,0,
00:00:00.3165,-0.0442646555602551,0,
00:00:00.317,-0.0546726994216442,0,
00:00:00.3175,-0.0508828945457935,0,
00:00:00.318,-0.0549202561378479,0,
00:00:00.3185,-0.0735112205147743,0,
00:00:00.319,-0.0863823816180229,0,
00:00:00.3195,-0.0882692858576775,0,
00:00:00.32,-0.120791248977184,0,
00:00:00.3205,-0.0395773947238922,0,
00:00:00.321,-0.00829815678298473,0,
00:00:00.3215,-0.00113629561383277,0,
00:00:00.322,0.0122401556000113,0,
00:00:00.3225,0.0245932247489691,0,
00:00:00.323,0.0401621460914612,0,
00:00:00.3235,0.0618687234818935,0,
00:00:00.324,0.0865356922149658,0,
00:00:00.3245,0.101400516927242,0,
00:00:00.325,0.106835529208183,0,
00:00:00.3255,0.103331059217453,0,
00:00:00.326,0.0864994749426842,0,
00:00:00.3265,0.0584388561546803,0,
00:00:00.327,0.0412957929074764,0,
00:00:00.3275,0.0268457904458046,0,
00:00:00.328,0.0138893388211727,0,
00:00:00.3285,0.00167753361165524,0,
00:00:00.329,-0.0101447571069002,0,
00:00:00.3295,-0.0216011963784695,0,
00:00:00.33,-0.032449945807457,0,
00:00:00.3305,-0.032214917242527,0,
00:00:00.331,-0.0229564625769854,0,
00:00:00.3315,-0.0263855196535587,0,
00:00:00.332,-0.0385440737009048,0,
00:00:00.3325,-0.0458983778953552,0,
00:00:00.333,-0.0430476106703281,0,
00:00:00.3335,-0.046120710670948,0,
00:00:00.334,-0.0422031842172146,0,
00:00:00.3345,-0.0416455715894699,0,
00:00:00.335,-0.0573752783238888,0,
00:00:00.3355,-0.0738286226987839,0,
00:00:00.336,-0.074099525809288,0,
00:00:00.3365,-0.0659050121903419,0,
00:00:00.337,-0.0556490235030651,0,
00:00:00.3375,-0.0385294556617737,0,
00:00:00.338,-0.0163495969027281,0,
00:00:00.3385,0.00404318794608116,0,
00:00:00.339,0.0271829180419445,0,
00:00:00.3395,0.0461573675274849,0,
00:00:00.34,0.0705718621611595,0,
00:00:00.3405,0.0873436778783798,0,
00:00:00.341,0.10149972140789,0,
00:00:00.3415,0.106801480054855,0,
00:00:00.342,0.108661875128746,0,
00:00:00.3425,0.0962578728795052,0,
00:00:00.343,0.0617243386805058,0,
00:00:00.3435,0.0399348959326744,0,
00:00:00.344,0.0273762475699186,0,
00:00:00.3445,0.00619029067456722,0,
00:00:00.345,-0.0469216145575047,0,
00:00:00.3455,0.0119486870244145,0,
00:00:00.346,-0.0157917346805334,0,
00:00:00.3465,-0.0341588519513607,0,
00:00:00.347,0.0106060774996877,0,
00:00:00.3475,-0.00242462335154414,0,
00:00:00.348,-0.0137627040967345,0,
00:00:00.3485,-0.0276540964841843,0,
00:00:00.349,-0.0420635901391506,0,
00:00:00.3495,-0.0452007204294205,0,
00:00:00.35,-0.0382522866129875,0,
00:00:00.3505,-0.0374328382313252,0,
00:00:00.351,-0.0399650819599628,0,
00:00:00.3515,-0.0536777526140213,0,
00:00:00.352,-0.0742795541882515,0,
00:00:00.3525,-0.0832954570651054,0,
00:00:00.353,-0.0770352557301521,0,
00:00:00.3535,-0.0633504167199135,0,
00:00:00.354,-0.0487428084015846,0,
00:00:00.3545,-0.0284688007086515,0,
00:00:00.355,-0.00434926571324468,0,
00:00:00.3555,0.0167917478829622,0,
00:00:00.356,-0.000594955345150083,0,
00:00:00.3565,0.0224719382822514,0,
00:00:00.357,0.110184885561466,0,
00:00:00.3575,0.0581229701638222,0,
00:00:00.358,0.129642441868782,0,
00:00:00.3585,0.132033556699753,0,
00:00:00.359,0.104734569787979,0,
00:00:00.3595,0.0639521703124046,0,
00:00:00.36,0.0327111296355724,0,
00:00:00.3605,0.018556984141469,0,
00:00:00.361,-0.0232300255447626,0,
00:00:00.3615,-0.0256232172250748,0,
00:00:00.362,0.0419041663408279,0,
00:00:00.3625,0.0101821189746261,0,
00:00:00.363,-0.016857985407114,0,
00:00:00.3635,-0.0293776970356703,0,
00:00:00.364,-0.0199713315814734,0,
00:00:00.3645,-0.0235192514955997,0,
00:00:00.365,-0.0411597900092602,0,
00:00:00.3655,-0.0129178278148174,0,
00:00:00.366,-0.0193663034588099,0,
00:00:00.3665,-0.0259859915822744,0,
00:00:00.367,-0.0312284715473652,0,
00:00:00.3675,-0.0288879703730345,0,
00:00:00.368,-0.0395284220576286,0,
00:00:00.3685,-0.0936850309371948,0,
00:00:00.369,-0.0981546640396118,0,
00:00:00.3695,-0.0280129089951515,0,
00:00:00.37,-0.0422298274934292,0,
00:00:00.3705,-0.0449990183115005,0,
00:00:00.371,-0.038465578109026,0,
00:00:00.3715,-0.0197868514806032,0,
00:00:00.372,0.00255219941027462,0,
00:00:00.3725,0.0216385647654533,0,
00:00:00.373,0.0420281551778317,0,
00:00:00.3735,0.0669480338692665,0,
00:00:00.374,0.0834750160574913,0,
00:00:00.3745,0.10182236880064,0,
00:00:00.375,0.0995533689856529,0,
00:00:00.3755,0.100114598870277,0,
00:00:00.376,0.0762849375605583,0,
00:00:00.3765,0.0480719655752182,0,
00:00:00.377,0.0261087585240602,0,
00:00:00.3775,-0.0266113486140966,0,
00:00:00.378,0.0282082483172417,0,
00:00:00.3785,0.0279003698378801,0,
00:00:00.379,-0.000271444645477459,0,
00:00:00.3795,-0.0242026746273041,0,
00:00:00.38,-0.0391160473227501,0,
00:00:00.3805,-0.0363186411559582,0,
00:00:00.381,-0.0244753584265709,0,
00:00:00.3815,-0.0203623343259096,0,
00:00:00.382,-0.0264383647590876,0,
00:00:00.3825,-0.034089382737875,0,
00:00:00.383,-0.0365070663392544,0,
00:00:00.3835,-0.0335402153432369,0,
00:00:00.384,-0.0302158296108246,0,
00:00:00.3845,-0.0254051648080349,0,
00:00:00.385,-0.0484530180692673,0,
00:00:00.3855,-0.0659625232219696,0,
00:00:00.386,-0.102692827582359,0,
00:00:00.3865,-0.0919135734438896,0,
00:00:00.387,-0.00900302361696959,0,
00:00:00.3875,-0.00813386216759682,0,
00:00:00.388,-0.00498342234641314,0,
00:00:00.3885,0.00477549619972706,0,
00:00:00.389,0.0139893218874931,0,
00:00:00.3895,0.0269695781171322,0,
00:00:00.39,0.0517137907445431,0,
00:00:00.3905,0.0687153488397598,0,
00:00:00.391,0.0830971747636795,0,
00:00:00.3915,0.0887089297175407,0,
00:00:00.392,0.0860228016972542,0,
00:00:00.3925,0.030467301607132,0,
00:00:00.393,0.075115293264389,0,
00:00:00.3935,0.0637605637311935,0,
00:00:00.394,0.0386150479316711,0,
00:00:00.3945,0.0176869370043278,0,
00:00:00.395,-0.000136392714921385,0,
00:00:00.3955,-0.0155677692964673,0,
00:00:00.396,-0.0490513667464256,0,
00:00:00.3965,-0.0452356971800327,0,
00:00:00.397,-0.0276558417826891,0,
00:00:00.3975,-0.0246617943048477,0,
00:00:00.398,-0.0222972519695759,0,
00:00:00.3985,-0.0246779825538397,0,
00:00:00.399,-0.024626474827528,0,
00:00:00.3995,-0.0316189862787724,0,
00:00:00.4,-0.0727061927318573,0,
00:00:00.4005,-0.0019654396455735,0,
00:00:00.401,0.0184464883059263,0,
00:00:00.4015,-0.019370099529624,0,
00:00:00.402,-0.0495358146727085,0,
00:00:00.4025,-0.0668310523033142,0,
00:00:00.403,-0.0677407830953598,0,
00:00:00.4035,-0.0602615438401699,0,
00:00:00.404,-0.0459935441613197,0,
00:00:00.4045,-0.0266168378293514,0,
00:00:00.405,0.0011778436601162,0,
00:00:00.4055,0.014316201210022,0,
00:00:00.406,0.0253456868231297,0,
00:00:00.4065,0.0487736202776432,0,
00:00:00.407,0.0650627017021179,0,
00:00:00.4075,0.084308460354805,0,
00:00:00.408,0.0939681306481361,0,
00:00:00.4085,0.0645125284790993,0,
00:00:00.409,0.0647299885749817,0,
00:00:00.4095,0.101505279541016,0,
00:00:00.41,0.0636274144053459,0,
00:00:00.4105,0.0335169434547424,0,
00:00:00.411,0.0143068106845021,0,
00:00:00.4115,-0.00676966272294521,0,
00:00:00.412,-0.0191769301891327,0,
00:00:00.4125,-0.0349089577794075,0,
00:00:00.413,-0.0528086125850677,0,
00:00:00.4135,-0.0566111728549004,0,
00:00:00.414,-0.0440302491188049,0,
00:00:00.4145,-0.0286575444042683,0,
00:00:00.415,-0.030903497710824,0,
00:00:00.4155,-0.0306519456207752,0,
00:00:00.416,-0.0224057342857122,0,
00:00:00.4165,-0.0171415973454714,0,
00:00:00.417,-0.0231636818498373,0,
00:00:00.4175,-0.0615518689155579,0,
00:00:00.418,0.0130627639591694,0,
00:00:00.4185,0.00787634961307049,0,
00:00:00.419,-0.0274440832436085,0,
00:00:00.4195,-0.038830928504467,0,
00:00:00.42,-0.0457669533789158,0,
00:00:00.4205,-0.0434751398861408,0,
00:00:00.421,-0.0287675857543945,0,
00:00:00.4215,-0.00984179694205523,0,
00:00:00.422,0.00661502731963992,0,
00:00:00.4225,0.0152844032272696,0,
00:00:00.423,0.037176389247179,0,
00:00:00.4235,0.0527126304805279,0,
00:00:00.424,0.0719295144081116,0,
00:00:00.4245,0.0771906077861786,0,
00:00:00.425,0.0803383514285088,0,
00:00:00.4255,0.0754390507936478,0,
00:00:00.426,0.0230439957231283,0,
00:00:00.4265,0.00976073835045099,0,
00:00:00.427,0.0559931173920631,0,
00:00:00.4275,0.0301874224096537,0,
00:00:00.428,-0.000928901834413409,0,
00:00:00.4285,-0.0157545395195484,0,
00:00:00.429,-0.0230211298912764,0,
00:00:00.4295,-0.0394797585904598,0,
00:00:00.43,-0.0674613267183304,0,
00:00:00.4305,-0.0128064323216677,0,
00:00:00.431,-0.00112386979162693,0,
00:00:00.4315,-0.00213683187030256,0,
00:00:00.432,-0.0171045921742916,0,
00:00:00.4325,-0.0715070068836212,0,
00:00:00.433,0.017155485227704,0,
00:00:00.4335,0.0286643784493208,0,
00:00:00.434,0.00668196985498071,0,
00:00:00.4345,-0.00917578674852848,0,
00:00:00.435,-0.0438381843268871,0,
00:00:00.4355,-0.060750488191843,0,
00:00:00.436,-0.0625204816460609,0,
00:00:00.4365,-0.056769710034132,0,
00:00:00.437,-0.0497742146253586,0,
00:00:00.4375,-0.0365759544074535,0,
00:00:00.438,-0.0187997259199619,0,
00:00:00.4385,-0.00309815327636898,0,
00:00:00.439,0.0102485986426473,0,
00:00:00.4395,0.0258859284222126,0,
00:00:00.44,0.0471077114343643,0,
00:00:00.4405,0.0610318556427956,0,
00:00:00.441,0.0728665515780449,0,
00:00:00.4415,0.0765290334820747,0,
00:00:00.442,0.0775571167469025,0,
00:00:00.4425,0.0601993054151535,0,
00:00:00.443,0.0330119542777538,0,
00:00:00.4435,0.0130169726908207,0,
00:00:00.444,0.00319775636307895,0,
00:00:00.4445,-0.00433393428102136,0,
00:00:00.445,-0.0105184651911259,0,
00:00:00.4455,-0.0209415145218372,0,
00:00:00.446,-0.0245011020451784,0,
00:00:00.4465,-0.0327175557613373,0,
00:00:00.447,-0.0239803213626146,0,
00:00:00.4475,-0.0120869828388095,0,
00:00:00.448,-0.00255514564923942,0,
00:00:00.4485,0.000594520883169025,0,
00:00:00.449,-0.0104212975129485,0,
00:00:00.4495,-0.0109284147620201,0,
00:00:00.45,-0.00726767396554351,0,
00:00:00.4505,-0.00440336531028152,0,
00:00:00.451,-0.00111519929487258,0,
00:00:00.4515,-0.0216117296367884,0,
00:00:00.452,-0.0437064915895462,0,
00:00:00.4525,-0.0503586195409298,0,
00:00:00.453,-0.0541368387639523,0,
00:00:00.4535,-0.0448829457163811,0,
00:00:00.454,-0.0354472361505032,0,
00:00:00.4545,-0.0208856202661991,0,
00:00:00.455,-0.00781928841024637,0,
00:00:00.4555,0.00348889175802469,0,
00:00:00.456,0.0176867544651031,0,
00:00:00.4565,0.0380555428564548,0,
00:00:00.457,0.046667542308569,0,
00:00:00.4575,0.019895238801837,0,
00:00:00.458,0.096121221780777,0,
00:00:00.4585,0.072442501783371,0,
00:00:00.459,0.0516809821128845,0,
00:00:00.4595,0.0928168147802353,0,
00:00:00.46,0.043663926422596,0,
00:00:00.4605,0.0108033092692494,0,
00:00:00.461,-0.00939420703798532,0,
00:00:00.4615,-0.0199038181453943,0,
00:00:00.462,-0.0281244833022356,0,
00:00:00.4625,-0.0345918647944927,0,
00:00:00.463,-0.0395585745573044,0,
00:00:00.4635,-0.0330152548849583,0,
00:00:00.464,-0.0174515880644321,0,
00:00:00.4645,-0.00492512807250023,0,
00:00:00.465,0.000544575101230294,0,
00:00:00.4655,-0.00378993805497885,0,
00:00:00.466,-0.00959078688174486,0,
00:00:00.4665,-0.00528688170015812,0,
00:00:00.467,-0.00732408044859767,0,
00:00:00.4675,-0.00305816880427301,0,
00:00:00.468,-0.0181104298681021,0,
00:00:00.4685,-0.0415460653603077,0,
00:00:00.469,-0.0597452148795128,0,
00:00:00.4695,-0.0624822117388248,0,
00:00:00.47,-0.0625708475708961,0,
00:00:00.4705,-0.0500496849417686,0,
00:00:00.471,-0.0379161462187767,0,
00:00:00.4715,-0.0163054000586271,0,
00:00:00.472,0.011815226636827,0,
00:00:00.4725,0.0236546322703362,0,
00:00:00.473,0.042106781154871,0,
00:00:00.4735,0.0643215253949165,0,
00:00:00.474,0.0777871832251549,0,
00:00:00.4745,0.0780297294259071,0,
00:00:00.475,0.0268010552972555,0,
00:00:00.4755,0.102005586028099,0,
00:00:00.476,0.050227977335453,0,
00:00:00.4765,0.0116247395053506,0,
00:00:00.477,0.0586296990513802,0,
00:00:00.4775,0.0136243086308241,0,
00:00:00.478,-0.021228265017271,0,
00:00:00.4785,-0.0778264254331589,0,
00:00:00.479,-0.0744028314948082,0,
00:00:00.4795,0.000168700455105864,0,
00:00:00.48,-0.0131922848522663,0,
00:00:00.4805,-0.013244466856122,0,
00:00:00.481,-0.032730121165514,0,
00:00:00.4815,-0.0207862239331007,0,
00:00:00.482,0.045854277908802,0,
00:00:00.4825,0.0228942111134529,0,
00:00:00.483,0.0128769828006625,0,
00:00:00.4835,0.00404029712080956,0,
00:00:00.484,0.00239554140716791,0,
00:00:00.4845,0.00732521247118711,0,
00:00:00.485,-0.0220444444566965,0,
00:00:00.4855,-0.0409012772142887,0,
00:00:00.486,-0.0452774129807949,0,
00:00:00.4865,-0.0477355681359768,0,
00:00:00.487,-0.0431000962853432,0,
00:00:00.4875,-0.0328056886792183,0,
00:00:00.488,-0.0183303244411945,0,
00:00:00.4885,-0.00115156266838312,0,
00:00:00.489,0.00726032676175237,0,
00:00:00.4895,0.0132051706314087,0,
00:00:00.49,-0.0237307716161013,0,
00:00:00.4905,0.0773287937045097,0,
00:00:00.491,0.0998840928077698,0,
00:00:00.4915,0.0753168687224388,0,
00:00:00.492,0.0592636466026306,0,
00:00:00.4925,0.034075066447258,0,
00:00:00.493,-0.00344042456708848,0,
00:00:00.4935,-0.040186557918787,0,
00:00:00.494,-0.0258034057915211,0,
00:00:00.4945,-0.00827161781489849,0,
00:00:00.495,-0.0244740433990955,0,
00:00:00.4955,-0.0363572277128696,0,
00:00:00.496,-0.0798174366354942,0,
00:00:00.4965,-0.0708719044923782,0,
00:00:00.497,0.0235930178314447,0,
00:00:00.4975,0.0258084107190371,0,
00:00:00.498,0.0227153599262238,0,
00:00:00.4985,0.0162552371621132,0,
00:00:00.499,0.0131743531674147,0,
00:00:00.4995,0.013645701110363,0,
00:00:00.5,0.017761318013072,0,
00:00:00.5005,0.0154710514470935,0,
00:00:00.501,0.0193052552640438,0,
00:00:00.5015,-0.00147095648571849,0,
00:00:00.502,-0.0246452614665031,0,
00:00:00.5025,-0.0331241264939308,0,
00:00:00.503,-0.0393985770642757,0,
00:00:00.5035,-0.0332103818655014,0,
00:00:00.504,-0.027290940284729,0,
00:00:00.5045,-0.0265990719199181,0,
00:00:00.505,-0.055055245757103,0,
00:00:00.5055,0.0252333655953407,0,
00:00:00.506,0.0508454516530037,0,
00:00:00.5065,0.0430159345269203,0,
00:00:00.507,0.0390108153223991,0,
00:00:00.5075,0.0472060963511467,0,
00:00:00.508,0.04348199442029,0,
00:00:00.5085,0.0447240695357323,0,
00:00:00.509,0.0336485579609871,0,
00:00:00.5095,0.0124189741909504,0,
00:00:00.51,-0.00687338830903172,0,
00:00:00.5105,-0.0148653741925955,0,
00:00:00.511,-0.0196148883551359,0,
00:00:00.5115,-0.0272701103240252,0,
00:00:00.512,-0.0322689563035965,0,
00:00:00.5125,-0.0352516509592533,0,
00:00:00.513,-0.0365877412259579,0,
00:00:00.5135,-0.0565021336078644,0,
00:00:00.514,-0.0295030288398266,0,
00:00:00.5145,0.0433356910943985,0,
00:00:00.515,0.0293803680688143,0,
00:00:00.5155,0.0149910543113947,0,
00:00:00.516,0.0115302186459303,0,
00:00:00.5165,0.0124395294114947,0,
00:00:00.517,0.0125836506485939,0,
00:00:00.5175,0.0180766135454178,0,
00:00:00.518,0.00331573141738772,0,
00:00:00.5185,-0.0157029554247856,0,
00:00:00.519,-0.0316262617707253,0,
00:00:00.5195,-0.0439975671470165,0,
00:00:00.52,-0.0878174006938934,0,
00:00:00.5205,0.00153055391274393,0,
00:00:00.521,0.0252454001456499,0,
00:00:00.5215,0.0178005006164312,0,
00:00:00.522,0.0114807784557343,0,
00:00:00.5225,0.00583689380437136,0,
00:00:00.523,0.0154132470488548,0,
00:00:00.5235,0.0056309443898499,0,
00:00:00.524,0.0356766991317272,0,
00:00:00.5245,0.0594342648983002,0,
00:00:00.525,0.0515550710260868,0,
00:00:00.5255,0.0336082763969898,0,
00:00:00.526,0.0124857053160667,0,
00:00:00.5265,-0.0113557120785117,0,
00:00:00.527,-0.0172953419387341,0,
00:00:00.5275,-0.0250153280794621,0,
00:00:00.528,-0.0293906889855862,0,
00:00:00.5285,-0.0615537762641907,0,
00:00:00.529,-0.0540878511965275,0,
00:00:00.5295,0.0137413935735822,0,
00:00:00.53,0.000589984003454447,0,
00:00:00.5305,0.00606246618553996,0,
00:00:00.531,0.0160448960959911,0,
00:00:00.5315,0.0146600781008601,0,
00:00:00.532,0.0152516411617398,0,
00:00:00.5325,0.0180912762880325,0,
00:00:00.533,0.0183749496936798,0,
00:00:00.5335,0.0275829304009676,0,
00:00:00.534,0.0241707302629948,0,
00:00:00.5345,0.0170169826596975,0,
00:00:00.535,-0.0120679875835776,0,
00:00:00.5355,-0.0312935411930084,0,
00:00:00.536,-0.0416613444685936,0,
00:00:00.5365,-0.0392962284386158,0,
00:00:00.537,-0.0468376837670803,0,
00:00:00.5375,-0.0815578401088715,0,
00:00:00.538,0.00955173652619123,0,
00:00:00.5385,0.0290118250995874,0,
00:00:00.539,0.0125091094523668,0,
00:00:00.5395,0.00849707517772913,0,
00:00:00.54,0.0136022297665477,0,
00:00:00.5405,0.0298566948622465,0,
00:00:00.541,0.0383042320609093,0,
00:00:00.5415,0.0395728573203087,0,
00:00:00.542,0.0393429137766361,0,
00:00:00.5425,0.0219572503119707,0,
00:00:00.543,-0.0039843306876719,0,
00:00:00.5435,-0.0164500493556261,0,
00:00:00.544,-0.0188491158187389,0,
00:00:00.5445,-0.0240167286247015,0,
00:00:00.545,-0.0265450775623322,0,
00:00:00.5455,-0.0322344191372395,0,
00:00:00.546,-0.0653559565544128,0,
00:00:00.5465,-0.0532187782227993,0,
00:00:00.547,0.0338073894381523,0,
00:00:00.5475,0.0306340213865042,0,
00:00:00.548,0.0238478425890207,0,
00:00:00.5485,0.0200730245560408,0,
00:00:00.549,0.0143922045826912,0,
00:00:00.5495,0.0182239506393671,0,
00:00:00.55,0.0200421717017889,0,
00:00:00.5505,0.0261122230440378,0,
00:00:00.551,0.0310694426298141,0,
00:00:00.5515,0.0106963487342,0,
00:00:00.552,-0.017795929685235,0,
00:00:00.5525,-0.0861406847834587,0,
00:00:00.553,-0.00178613606840372,0,
00:00:00.5535,0.0122568346560001,0,
00:00:00.554,-0.00790768396109343,0,
00:00:00.5545,-0.0135584892705083,0,
00:00:00.555,-0.0129653755575418,0,
00:00:00.5555,-0.0128332823514938,0,
00:00:00.556,-0.0284931529313326,0,
00:00:00.5565,0.00389361707493663,0,
00:00:00.557,0.0364950820803642,0,
00:00:00.5575,0.0373811312019825,0,
00:00:00.558,0.0430763624608517,0,
00:00:00.5585,0.036322470754385,0,
00:00:00.559,0.0293099768459797,0,
00:00:00.5595,0.00135187921114266,0,
00:00:00.56,-0.0175777412950993,0,
00:00:00.5605,-0.0296644326299429,0,
00:00:00.561,-0.0316444747149944,0,
00:00:00.5615,-0.0312122702598572,0,
00:00:00.562,-0.0342170596122742,0,
00:00:00.5625,-0.0348635166883469,0,
00:00:00.563,-0.0286053288727999,0,
00:00:00.5635,-0.0220394674688578,0,
00:00:00.564,-3.65272971976083E-05,0,
00:00:00.5645,0.0185778830200434,0,
00:00:00.565,0.0295512638986111,0,
00:00:00.5655,0.0299225468188524,0,
00:00:00.566,0.0328616760671139,0,
00:00:00.5665,0.0384364277124405,0,
00:00:00.567,0.0366014763712883,0,
00:00:00.5675,0.039921261370182,0,
00:00:00.568,0.0227415971457958,0,
00:00:00.5685,0.00103043555282056,0,
00:00:00.569,-0.017863729968667,0,
00:00:00.5695,-0.0284481812268496,0,
00:00:00.57,-0.0318720154464245,0,
00:00:00.5705,-0.0243506114929914,0,
00:00:00.571,-0.0185181573033333,0,
00:00:00.5715,-0.00915720872581005,0,
00:00:00.572,-0.00256825867109001,0,
00:00:00.5725,0.00134225992951542,0,
00:00:00.573,0.0126197645440698,0,
00:00:00.5735,0.0135460887104273,0,
00:00:00.574,0.0208110548555851,0,
00:00:00.5745,0.0218923296779394,0,
00:00:00.575,0.0223520249128342,0,
00:00:00.5755,0.0164374429732561,0,
00:00:00.576,-0.0100968945771456,0,
00:00:00.5765,-0.0273615643382072,0,
00:00:00.577,-0.0326080322265625,0,
00:00:00.5775,-0.0340057164430618,0,
00:00:00.578,-0.0378321260213852,0,
00:00:00.5785,-0.0386680476367474,0,
00:00:00.579,-0.0373053997755051,0,
00:00:00.5795,-0.0342692099511623,0,
00:00:00.58,-0.0298655238002539,0,
00:00:00.5805,-0.00415640650317073,0,
00:00:00.581,-0.0176137275993824,0,
00:00:00.5815,-2.9132499548723E-05,0,
00:00:00.582,0.0565972402691841,0,
00:00:00.5825,0.00168770097661763,0,
00:00:00.583,0.06410301476717,0,
00:00:00.5835,0.0751034840941429,0,
00:00:00.584,0.0569455586373806,0,
00:00:00.5845,0.0376498885452747,0,
00:00:00.585,0.00867664255201817,0,
00:00:00.5855,-0.00617337133735418,0,
00:00:00.586,-0.0191925410181284,0,
00:00:00.5865,-0.0249328147619963,0,
00:00:00.587,-0.0245633721351624,0,
00:00:00.5875,-0.0193122457712889,0,
00:00:00.588,-0.0104307010769844,0,
00:00:00.5885,-0.00417535519227386,0,
00:00:00.589,-0.000421299104345962,0,
00:00:00.5895,0.0108955344185233,0,
00:00:00.59,0.0170814245939255,0,
00:00:00.5905,0.0284872725605965,0,
00:00:00.591,0.027734886854887,0,
00:00:00.5915,0.0268599595874548,0,
00:00:00.592,0.0200505945831537,0,
00:00:00.5925,0.00303223892115057,0,
00:00:00.593,-0.0220969021320343,0,
00:00:00.5935,-0.0333027392625809,0,
00:00:00.594,-0.0390306487679482,0,
00:00:00.5945,-0.0408012941479683,0,
00:00:00.595,-0.0447915904223919,0,
00:00:00.5955,-0.0404887348413467,0,
00:00:00.596,-0.0700963214039803,0,
00:00:00.5965,-0.0544761680066586,0,
00:00:00.597,0.025882875546813,0,
00:00:00.5975,-0.0116349086165428,0,
00:00:00.598,0.067518375813961,0,
00:00:00.5985,0.0739510133862495,0,
00:00:00.599,0.0498820655047894,0,
00:00:00.5995,0.0438456051051617,0,
00:00:00.6,0.0425120480358601,0,
00:00:00.6005,0.0405249930918217,0,
00:00:00.601,0.00868085492402315,0,
00:00:00.6015,-0.00433472217991948,0,
00:00:00.602,0.0232714451849461,0,
00:00:00.6025,-0.0436229333281517,0,
00:00:00.603,0.00496834563091397,0,
00:00:00.6035,0.0107953734695911,0,
00:00:00.604,-0.0112630249932408,0,
00:00:00.6045,-0.0139236785471439,0,
00:00:00.605,-0.0167323686182499,0,
00:00:00.6055,-0.0147838443517685,0,
00:00:00.606,-0.0146193038672209,0,
00:00:00.6065,-0.00628289580345154,0,
00:00:00.607,0.00247180741280317,0,
00:00:00.6075,0.0156106250360608,0,
00:00:00.608,0.0159044917672873,0,
00:00:00.6085,-0.00954805035144091,0,
00:00:00.609,-0.0196834020316601,0,
00:00:00.6095,0.0216984581202269,0,
00:00:00.61,-0.00964053254574537,0,
00:00:00.6105,-0.0263288449496031,0,
00:00:00.611,-0.0367377065122128,0,
00:00:00.6115,-0.0423344895243645,0,
00:00:00.612,-0.0442476384341717,0,
00:00:00.6125,-0.0433100573718548,0,
00:00:00.613,-0.0401043705642223,0,
00:00:00.6135,-0.0299907084554434,0,
00:00:00.614,-0.00446733646094799,0,
00:00:00.6145,0.0175396148115397,0,
00:00:00.615,0.0266646426171064,0,
00:00:00.6155,0.0312122590839863,0,
00:00:00.616,0.0377657748758793,0,
00:00:00.6165,0.0413266196846962,0,
00:00:00.617,0.0331322066485882,0,
00:00:00.6175,-0.008259785361588,0,
00:00:00.618,0.0572399795055389,0,
00:00:00.6185,0.053039126098156,0,
00:00:00.619,0.0159027092158794,0,
00:00:00.6195,-0.00488775037229061,0,
00:00:00.62,-0.0171539895236492,0,
00:00:00.6205,-0.017236553132534,0,
00:00:00.621,-0.0379474498331547,0,
00:00:00.6215,-0.00867738295346498,0,
00:00:00.622,0.0178368128836155,0,
00:00:00.6225,0.0109683461487293,0,
00:00:00.623,0.00825237762182951,0,
00:00:00.6235,0.00823001749813557,0,
00:00:00.624,0.0146366758272052,0,
00:00:00.6245,0.00499519938603044,0,
00:00:00.625,-0.0425450801849365,0,
00:00:00.6255,0.0370598547160625,0,
00:00:00.626,0.0306703485548496,0,
00:00:00.6265,-0.0123010370880365,0,
00:00:00.627,-0.0375718586146832,0,
00:00:00.6275,-0.0389008112251759,0,
00:00:00.628,-0.0421889498829842,0,
00:00:00.6285,-0.0370630733668804,0,
00:00:00.629,-0.0357428081333637,0,
00:00:00.6295,-0.027308015152812,0,
00:00:00.63,-0.0235199853777885,0,
00:00:00.6305,0.0019649313762784,0,
00:00:00.631,0.0236843079328537,0,
00:00:00.6315,0.0322713293135166,0,
00:00:00.632,0.0360394604504108,0,
00:00:00.6325,0.0365725010633469,0,
00:00:00.633,0.040251087397337,0,
00:00:00.6335,0.0117629542946815,0,
00:00:00.634,0.020290607586503,0,
00:00:00.6345,0.0777702182531357,0,
00:00:00.635,0.0362218730151653,0,
00:00:00.6355,0.00553940515965223,0,
00:00:00.636,-0.0154203781858087,0,
00:00:00.6365,-0.0228769741952419,0,
00:00:00.637,-0.0294854193925858,0,
00:00:00.6375,-0.0300713963806629,0,
00:00:00.638,-0.0209685750305653,0,
00:00:00.6385,-0.0148490751162171,0,
00:00:00.639,-0.0114762149751186,0,
00:00:00.6395,-0.00569323683157563,0,
00:00:00.64,0.00126427237410098,0,
00:00:00.6405,0.0133339613676071,0,
00:00:00.641,0.0182565748691559,0,
00:00:00.6415,0.0168036445975304,0,
00:00:00.642,0.00472899759188294,0,
00:00:00.6425,-0.0610308088362217,0,
00:00:00.643,-0.00611338531598449,0,
00:00:00.6435,-0.00108578463550657,0,
00:00:00.644,-0.0250535812228918,0,
00:00:00.6445,-0.0408773869276047,0,
00:00:00.645,-0.0451777502894402,0,
00:00:00.6455,-0.0455972626805305,0,
00:00:00.646,-0.037960521876812,0,
00:00:00.6465,-0.0292117670178413,0,
00:00:00.647,-0.00955821014940739,0,
00:00:00.6475,0.0232778321951628,0,
00:00:00.648,0.0405996292829514,0,
00:00:00.6485,0.015833456069231,0,
00:00:00.649,0.0252424329519272,0,
00:00:00.6495,0.106443025171757,0,
00:00:00.65,0.0954460501670837,0,
00:00:00.6505,0.0796177312731743,0,
00:00:00.651,0.0610691048204899,0,
00:00:00.6515,0.0264392998069525,0,
00:00:00.652,-0.0089882705360651,0,
00:00:00.6525,-0.0434946790337563,0,
00:00:00.653,-0.015608767978847,0,
00:00:00.6535,-0.0205649398267269,0,
00:00:00.654,-0.0253857169300318,0,
00:00:00.6545,-0.0249088238924742,0,
00:00:00.655,-0.0204713065177202,0,
00:00:00.6555,-0.0183715503662825,0,
00:00:00.656,-0.0485974028706551,0,
00:00:00.6565,-0.0279284045100212,0,
00:00:00.657,0.0458085089921951,0,
00:00:00.6575,0.0370350331068039,0,
00:00:00.658,0.0195092856884003,0,
00:00:00.6585,0.0100909555330873,0,
00:00:00.659,-0.00857136957347393,0,
00:00:00.6595,-0.0394461415708065,0,
00:00:00.66,-0.0542341880500317,0,
00:00:00.6605,-0.0566279068589211,0,
00:00:00.661,-0.0497317016124725,0,
00:00:00.6615,-0.0461461208760738,0,
00:00:00.662,-0.0402977615594864,0,
00:00:00.6625,-0.0378873012959957,0,
00:00:00.663,-0.0280197039246559,0,
00:00:00.6635,-0.0124626504257321,0,
00:00:00.664,0.0123660704120994,0,
00:00:00.6645,0.0239208526909351,0,
00:00:00.665,-0.00973174348473549,0,
00:00:00.6655,0.0739870592951775,0,
00:00:00.666,0.0954841673374176,0,
00:00:00.6665,0.0840481743216515,0,
00:00:00.667,0.0732394009828568,0,
00:00:00.6675,0.0687842965126038,0,
00:00:00.668,0.044760636985302,0,
00:00:00.6685,0.0169148966670036,0,
00:00:00.669,-0.00256102066487074,0,
00:00:00.6695,-0.009618797339499,0,
00:00:00.67,-0.0216846615076065,0,
00:00:00.6705,-0.0220086760818958,0,
00:00:00.671,-0.0232738666236401,0,
00:00:00.6715,-0.0152634903788567,0,
00:00:00.672,-0.0106060756370425,0,
00:00:00.6725,-0.00900582410395145,0,
00:00:00.673,-0.00021580966131296,0,
00:00:00.6735,-0.0268510561436415,0,
00:00:00.674,-0.0152828525751829,0,
00:00:00.6745,0.0598235167562962,0,
00:00:00.675,0.0352732948958874,0,
00:00:00.6755,-0.000712213630322367,0,
00:00:00.676,-0.0350476205348969,0,
00:00:00.6765,-0.057601235806942,0,
00:00:00.677,-0.0658306404948235,0,
00:00:00.6775,-0.0631143301725388,0,
00:00:00.678,-0.0623096041381359,0,
00:00:00.6785,-0.0580810271203518,0,
00:00:00.679,-0.0513288751244545,0,
00:00:00.6795,-0.0427064001560211,0,
00:00:00.68,-0.0276440735906363,0,
00:00:00.6805,0.00731142656877637,0,
00:00:00.681,0.0318227112293243,0,
00:00:00.6815,0.0480048097670078,0,
00:00:00.682,0.0527606420218945,0,
00:00:00.6825,0.0591498911380768,0,
00:00:00.683,0.0671597123146057,0,
00:00:00.6835,0.0717148259282112,0,
00:00:00.684,0.0689957290887833,0,
00:00:00.6845,0.0512323454022408,0,
00:00:00.685,0.0229038391262293,0,
00:00:00.6855,0.00279616215266287,0,
00:00:00.686,-0.00497706793248653,0,
00:00:00.6865,-0.0127642527222633,0,
00:00:00.687,-0.0151144890114665,0,
00:00:00.6875,-0.0131360348314047,0,
00:00:00.688,-0.0029225826729089,0,
00:00:00.6885,-0.00192877615336329,0,
00:00:00.689,-0.00837391242384911,0,
00:00:00.6895,-0.00570895336568356,0,
00:00:00.69,-0.00164039630908519,0,
00:00:00.6905,-0.00221525481902063,0,
00:00:00.691,-0.00196027546189725,0,
00:00:00.6915,-0.00173533847555518,0,
00:00:00.692,-0.00722226873040199,0,
00:00:00.6925,-0.0276105720549822,0,
00:00:00.693,-0.0443580932915211,0,
00:00:00.6935,-0.0532507635653019,0,
00:00:00.694,-0.0511780828237534,0,
00:00:00.6945,-0.0460109300911427,0,
00:00:00.695,-0.0437924973666668,0,
00:00:00.6955,-0.0389324948191643,0,
00:00:00.696,-0.032112255692482,0,
00:00:00.6965,-0.0238023307174444,0,
00:00:00.697,-0.00426801666617393,0,
00:00:00.6975,0.0287049263715744,0,
00:00:00.698,0.0413347892463207,0,
00:00:00.6985,0.0484410189092159,0,
00:00:00.699,0.0566167533397675,0,
00:00:00.6995,0.0558749660849571,0,
00:00:00.7,0.0237629320472479,0,
00:00:00.7005,0.089517243206501,0,
00:00:00.701,0.0735147073864937,0,
00:00:00.7015,0.0356908105313778,0,
00:00:00.702,0.0629305839538574,0,
00:00:00.7025,0.0293191578239203,0,
00:00:00.703,0.000338058220222592,0,
00:00:00.7035,-0.0190105754882097,0,
00:00:00.704,-0.0252498313784599,0,
00:00:00.7045,-0.0212239306420088,0,
00:00:00.705,-0.0145730143412948,0,
00:00:00.7055,-0.0214185360819101,0,
00:00:00.706,-0.0187321342527866,0,
00:00:00.7065,-0.0142714148387313,0,
00:00:00.707,-0.00912085641175509,0,
00:00:00.7075,0.000818846689071506,0,
00:00:00.708,-0.0015636736061424,0,
00:00:00.7085,-0.00899912044405937,0,
00:00:00.709,-0.0207373891025782,0,
00:00:00.7095,-0.0460518263280392,0,
00:00:00.71,-0.0614606104791164,0,
00:00:00.7105,-0.0591229945421219,0,
00:00:00.711,-0.0886394530534744,0,
00:00:00.7115,-0.081679493188858,0,
00:00:00.712,-0.01174505520612,0,
00:00:00.7125,-0.0660588964819908,0,
00:00:00.713,-0.00336450268514454,0,
00:00:00.7135,0.0172286406159401,0,
00:00:00.714,0.0252016056329012,0,
00:00:00.7145,0.0236148089170456,0,
00:00:00.715,-0.0149156600236893,0,
00:00:00.7155,0.0654121860861778,0,
00:00:00.716,0.0847676768898964,0,
00:00:00.7165,0.0772362425923347,0,
00:00:00.717,0.0648228749632835,0,
00:00:00.7175,0.0696177184581757,0,
00:00:00.718,0.0478359200060368,0,
00:00:00.7185,0.00670271366834641,0,
00:00:00.719,0.00753619056195021,0,
00:00:00.7195,0.0158729050308466,0,
00:00:00.72,-0.000161994656082243,0,
00:00:00.7205,-0.00926151778548956,0,
00:00:00.721,-0.0428599342703819,0,
00:00:00.7215,-0.0291327033191919,0,
00:00:00.722,0.0454820320010185,0,
00:00:00.7225,0.0237765070050955,0,
00:00:00.723,0.00840789917856455,0,
00:00:00.7235,0.00282282452099025,0,
00:00:00.724,0.00431707687675953,0,
00:00:00.7245,-0.00449333805590868,0,
00:00:00.725,-0.00656701251864433,0,
00:00:00.7255,-0.0241110604256392,0,
00:00:00.726,-0.0536163039505482,0,
00:00:00.7265,-0.0668351501226425,0,
00:00:00.727,-0.0725330039858818,0,
00:00:00.7275,-0.0675373151898384,0,
00:00:00.728,-0.0646837428212166,0,
00:00:00.7285,-0.0536014847457409,0,
00:00:00.729,-0.0415111221373081,0,
00:00:00.7295,-0.043932419270277,0,
00:00:00.73,-0.0672327801585197,0,
00:00:00.7305,0.0400270149111748,0,
00:00:00.731,0.0842872858047485,0,
00:00:00.7315,0.0690800100564957,0,
00:00:00.732,0.0642088353633881,0,
00:00:00.7325,0.0679254084825516,0,
00:00:00.733,0.0686255097389221,0,
00:00:00.7335,0.06751998513937,0,
00:00:00.734,0.065583735704422,0,
00:00:00.7345,0.0535232089459896,0,
00:00:00.735,0.0244526471942663,0,
00:00:00.7355,0.00366093567572534,0,
00:00:00.736,-0.0398833639919758,0,
00:00:00.7365,-0.0390807278454304,0,
00:00:00.737,0.0311635229736567,0,
00:00:00.7375,0.0122182732447982,0,
00:00:00.738,0.00540277268737555,0,
00:00:00.7385,-0.00716625433415174,0,
00:00:00.739,-0.0140738189220428,0,
00:00:00.7395,-0.0168317891657352,0,
00:00:00.74,-0.00676937261596322,0,
00:00:00.7405,-0.00277111609466374,0,
00:00:00.741,0.000835331797134131,0,
00:00:00.7415,-0.00164231914095581,0,
00:00:00.742,-0.00938073452562094,0,
00:00:00.7425,-0.0315909832715988,0,
00:00:00.743,-0.0547731816768646,0,
00:00:00.7435,-0.063388355076313,0,
00:00:00.744,-0.065885603427887,0,
00:00:00.7445,-0.0638216286897659,0,
00:00:00.745,-0.0584213472902775,0,
00:00:00.7455,-0.0455985777080059,0,
00:00:00.746,-0.0323666930198669,0,
00:00:00.7465,-0.0190166532993317,0,
00:00:00.747,0.00435319263488054,0,
00:00:00.7475,0.0350934155285358,0,
00:00:00.748,0.050916388630867,0,
00:00:00.7485,0.0552420243620873,0,
00:00:00.749,0.0611288584768772,0,
00:00:00.7495,0.0585323683917522,0,
00:00:00.75,0.00988976936787367,0,
00:00:00.7505,0.0985127240419388,0,
00:00:00.751,0.104877352714539,0,
00:00:00.7515,0.0481654852628708,0,
00:00:00.752,0.000216605811147019,0,
00:00:00.7525,-0.0743001997470856,0,
00:00:00.753,0.00400172034278512,0,
00:00:00.7535,-0.0080191008746624,0,
00:00:00.754,-0.0138019695878029,0,
00:00:00.7545,-0.00461352616548538,0,
00:00:00.755,-0.0144617650657892,0,
00:00:00.7555,-0.0238784775137901,0,
00:00:00.756,-0.0230082217603922,0,
00:00:00.7565,-0.00968259759247303,0,
00:00:00.757,0.0022491361014545,0,
00:00:00.7575,0.00712056923657656,0,
00:00:00.758,0.00576101336628199,0,
00:00:00.7585,0.00400659535080194,0,
00:00:00.759,-0.0136939883232117,0,
00:00:00.7595,-0.0437059327960014,0,
00:00:00.76,-0.0978102907538414,0,
00:00:00.7605,-0.0286162160336971,0,
00:00:00.761,-0.0124514838680625,0,
00:00:00.7615,-0.0327565483748913,0,
00:00:00.762,-0.0404433943331242,0,
00:00:00.7625,-0.0381376072764397,0,
00:00:00.763,-0.0330534875392914,0,
00:00:00.7635,-0.0156593751162291,0,
00:00:00.764,0.0160727761685848,0,
00:00:00.7645,0.0382289737462997,0,
00:00:00.765,0.0477927550673485,0,
00:00:00.7655,0.057914961129427,0,
00:00:00.766,0.0686831027269363,0,
00:00:00.7665,0.0801479443907738,0,
00:00:00.767,0.0822699218988419,0,
00:00:00.7675,0.077610582113266,0,
00:00:00.768,0.0532475039362907,0,
00:00:00.7685,0.0248898267745972,0,
00:00:00.769,0.00470480229705572,0,
00:00:00.7695,-0.00327082769945264,0,
00:00:00.77,-0.011443704366684,0,
00:00:00.7705,-0.019420025870204,0,
00:00:00.771,-0.0169759131968021,0,
00:00:00.7715,-0.0117360288277268,0,
00:00:00.772,-0.0147921228781343,0,
00:00:00.7725,-0.0194785669445992,0,
00:00:00.773,-0.0156868025660515,0,
00:00:00.7735,-0.0461559072136879,0,
00:00:00.774,-0.0273324754089117,0,
00:00:00.7745,0.048331756144762,0,
00:00:00.775,0.024239644408226,0,
00:00:00.7755,-0.00630253273993731,0,
00:00:00.776,-0.0766299962997437,0,
00:00:00.7765,-0.0855706781148911,0,
00:00:00.777,-0.027273653075099,0,
00:00:00.7775,-0.0447577387094498,0,
00:00:00.778,-0.0599887706339359,0,
00:00:00.7785,-0.0680718496441841,0,
00:00:00.779,-0.0602987594902515,0,
00:00:00.7795,-0.0554217174649239,0,
00:00:00.78,-0.0526152849197388,0,
00:00:00.7805,0.0191773790866137,0,
00:00:00.781,0.0469498373568058,0,
00:00:00.7815,0.050494521856308,0,
00:00:00.782,0.0508274994790554,0,
00:00:00.7825,0.0592394731938839,0,
00:00:00.783,0.0691365227103233,0,
00:00:00.7835,0.0653550550341606,0,
00:00:00.784,0.0767698734998703,0,
00:00:00.7845,0.0548280291259289,0,
00:00:00.785,-0.016782458871603,0,
00:00:00.7855,0.0466141849756241,0,
00:00:00.786,0.0466611497104168,0,
00:00:00.7865,0.0182185135781765,0,
00:00:00.787,0.00392360333353281,0,
00:00:00.7875,-0.00408688839524984,0,
00:00:00.788,-0.00211731530725956,0,
00:00:00.7885,-0.00279582617804408,0,
00:00:00.789,-0.00583070144057274,0,
00:00:00.7895,-0.0110211968421936,0,
00:00:00.79,-0.00316767813637853,0,
00:00:00.7905,-0.00114979909267277,0,
00:00:00.791,-0.00430880300700665,0,
00:00:00.7915,-0.0120000466704369,0,
00:00:00.792,-0.0185588616877794,0,
00:00:00.7925,-0.0447145029902458,0,
00:00:00.793,-0.065593384206295,0,
00:00:00.7935,-0.0972406193614006,0,
00:00:00.794,-0.0863006189465523,0,
00:00:00.7945,-0.0179978292435408,0,
00:00:00.795,-0.0332150496542454,0,
00:00:00.7955,-0.0420023836195469,0,
00:00:00.796,-0.0404636040329933,0,
00:00:00.7965,-0.0308051202446222,0,
00:00:00.797,-0.00482817040756345,0,
00:00:00.7975,0.0232794936746359,0,
00:00:00.798,0.0375661812722683,0,
00:00:00.7985,0.0412743836641312,0,
00:00:00.799,0.0573337040841579,0,
00:00:00.7995,0.0678985416889191,0,
00:00:00.8,0.0744553729891777,0,
00:00:00.8005,0.0732275024056435,0,
00:00:00.801,0.0665291100740433,0,
00:00:00.8015,0.0361880697309971,0,
00:00:00.802,0.0190876703709364,0,
00:00:00.8025,0.00300317537039518,0,
00:00:00.803,-0.00150015554390848,0,
00:00:00.8035,-0.00681687379255891,0,
00:00:00.804,-0.0125327249988914,0,
00:00:00.8045,-0.00839510373771191,0,
00:00:00.805,-0.007010318338871,0,
00:00:00.8055,-0.00807479582726955,0,
00:00:00.806,-0.00636681262403727,0,
00:00:00.8065,0.00195647054351866,0,
00:00:00.807,0.00953390169888735,0,
00:00:00.8075,0.0106613682582974,0,
00:00:00.808,0.00612915493547916,0,
00:00:00.8085,0.00173308828379959,0,
00:00:00.809,-0.0181195680052042,0,
00:00:00.8095,-0.0448180735111237,0,
00:00:00.81,-0.0513554327189922,0,
00:00:00.8105,-0.0576061718165874,0,
00:00:00.811,-0.058686476200819,0,
00:00:00.8115,-0.0609202273190022,0,
00:00:00.812,-0.0539641529321671,0,
00:00:00.8125,-0.0450811013579369,0,
00:00:00.813,-0.0398107022047043,0,
00:00:00.8135,-0.0221285335719585,0,
00:00:00.814,0.00494709331542253,0,
00:00:00.8145,0.0288295112550259,0,
00:00:00.815,0.0349516794085503,0,
00:00:00.8155,0.0478124208748341,0,
00:00:00.816,0.0559693537652493,0,
00:00:00.8165,0.065823458135128,0,
00:00:00.817,0.0671767890453339,0,
00:00:00.8175,0.072484664618969,0,
00:00:00.818,0.0459939576685429,0,
00:00:00.8185,0.0263614188879728,0,
00:00:00.819,0.00794489402323961,0,
00:00:00.8195,-0.00365816219709814,0,
00:00:00.82,-0.0495954193174839,0,
00:00:00.8205,0.0150975501164794,0,
00:00:00.821,0.00235349079594016,0,
00:00:00.8215,-0.00950027164071798,0,
00:00:00.822,0.0396610014140606,0,
00:00:00.8225,0.013437264598906,0,
00:00:00.823,-0.000220771922613494,0,
00:00:00.8235,-0.00935988780111074,0,
00:00:00.824,-0.00528724398463964,0,
00:00:00.8245,-0.0118581326678395,0,
00:00:00.825,-0.0119829755276442,0,
00:00:00.8255,-0.0228079874068499,0,
00:00:00.826,-0.0471204295754433,0,
00:00:00.8265,-0.0614811517298222,0,
00:00:00.827,-0.0631125718355179,0,
00:00:00.8275,-0.0601993724703789,0,
00:00:00.828,-0.0590760782361031,0,
00:00:00.8285,-0.0544184222817421,0,
00:00:00.829,-0.0421277247369289,0,
00:00:00.8295,-0.0342346914112568,0,
00:00:00.83,-0.00965205207467079,0,
00:00:00.8305,0.0173055455088615,0,
00:00:00.831,0.045646645128727,0,
00:00:00.8315,0.0545314066112041,0,
00:00:00.832,0.0536496639251709,0,
00:00:00.8325,0.0106506813317537,0,
00:00:00.833,0.102730773389339,0,
00:00:00.8335,0.0806681513786316,0,
00:00:00.834,0.0723042711615562,0,
00:00:00.8345,0.110309459269047,0,
00:00:00.835,0.0577419251203537,0,
00:00:00.8355,0.0126849142834544,0,
00:00:00.836,-0.0148873897269368,0,
00:00:00.8365,-0.022889431566,0,
00:00:00.837,-0.0354843251407146,0,
00:00:00.8375,-0.0862761065363884,0,
00:00:00.838,0.0107464268803596,0,
00:00:00.8385,0.0226638484746218,0,
00:00:00.839,-0.00148741737939417,0,
00:00:00.8395,-0.0129513470456004,0,
00:00:00.84,-0.00978993065655231,0,
00:00:00.8405,-0.00606760289520025,0,
00:00:00.841,-0.00765184545889497,0,
00:00:00.8415,-0.0139013500884175,0,
00:00:00.842,-0.0191558767110109,0,
00:00:00.8425,-0.0391313619911671,0,
00:00:00.843,-0.0603106282651424,0,
00:00:00.8435,-0.0621213465929031,0,
00:00:00.844,-0.0593328140676022,0,
00:00:00.8445,-0.0583296827971935,0,
00:00:00.845,-0.053827203810215,0,
00:00:00.8455,-0.0467736013233662,0,
00:00:00.846,-0.0378659181296825,0,
00:00:00.8465,-0.0225730016827583,0,
00:00:00.847,0.00249008485116065,0,
00:00:00.8475,0.034682672470808,0,
00:00:00.848,0.0467088967561722,0,
00:00:00.8485,0.0533517338335514,0,
00:00:00.849,0.0611707456409931,0,
00:00:00.8495,0.0651670768857002,0,
00:00:00.85,0.0716562643647194,0,
00:00:00.8505,0.0803884640336037,0,
00:00:00.851,0.0709895715117455,0,
00:00:00.8515,0.0433442108333111,0,
00:00:00.852,0.0179536454379559,0,
00:00:00.8525,0.000442595308413729,0,
00:00:00.853,-0.00516502559185028,0,
00:00:00.8535,-0.0112831704318523,0,
00:00:00.854,-0.012501428835094,0,
00:00:00.8545,-0.00994348898530006,0,
00:00:00.855,-0.00973073299974203,0,
00:00:00.8555,-0.0166197847574949,0,
00:00:00.856,-0.019099423661828,0,
00:00:00.8565,-0.0135507164523005,0,
00:00:00.857,-0.00754669634625316,0,
00:00:00.8575,-0.00197219592519104,0,
00:00:00.858,0.00246288347989321,0,
00:00:00.8585,0.000211186415981501,0,
00:00:00.859,-0.0228149257600307,0,
00:00:00.8595,-0.0466512329876423,0,
00:00:00.86,-0.0558156780898571,0,
00:00:00.8605,-0.0588094592094421,0,
00:00:00.861,-0.0572351068258286,0,
00:00:00.8615,-0.0523559674620628,0,
00:00:00.862,-0.0451342314481735,0,
00:00:00.8625,-0.0412894301116467,0,
00:00:00.863,-0.0299518126994371,0,
00:00:00.8635,-0.0380104780197144,0,
00:00:00.864,0.00487764505669475,0,
00:00:00.8645,0.0861055329442024,0,
00:00:00.865,0.024167375639081,0,
00:00:00.8655,0.0953416302800179,0,
00:00:00.866,0.0715497732162476,0,
00:00:00.8665,0.0562299974262714,0,
00:00:00.867,0.108652420341969,0,
00:00:00.8675,0.0665523633360863,0,
00:00:00.868,0.0638661831617355,0,
00:00:00.8685,-0.00837150402367115,0,
00:00:00.869,-0.0311486404389143,0,
00:00:00.8695,0.0303614791482687,0,
00:00:00.87,0.00453263707458973,0,
00:00:00.8705,-0.0123306596651673,0,
00:00:00.871,-0.0217889510095119,0,
00:00:00.8715,-0.0153320422396064,0,
00:00:00.872,-0.0171245932579041,0,
00:00:00.8725,-0.0155102992430329,0,
00:00:00.873,-0.011762510985136,0,
00:00:00.8735,-0.0421401932835579,0,
00:00:00.874,-0.0281532648950815,0,
00:00:00.8745,0.0440354123711586,0,
00:00:00.875,0.0226256083697081,0,
00:00:00.8755,-0.00561522133648396,0,
00:00:00.876,-0.0389041714370251,0,
00:00:00.8765,-0.0605522096157074,0,
00:00:00.877,-0.0679884627461433,0,
00:00:00.8775,-0.0846404582262039,0,
00:00:00.878,-0.0428121350705624,0,
00:00:00.8785,-0.0426623262465,0,
00:00:00.879,-0.0444632656872272,0,
00:00:00.8795,-0.047583032399416,0,
00:00:00.88,-0.0714408382773399,0,
00:00:00.8805,0.0303811989724636,0,
00:00:00.881,0.0706530660390854,0,
00:00:00.8815,0.0627601742744446,0,
00:00:00.882,0.0586501210927963,0,
00:00:00.8825,0.0580879710614681,0,
00:00:00.883,0.0658455565571785,0,
00:00:00.8835,0.0652752220630646,0,
00:00:00.884,0.0688987895846367,0,
00:00:00.8845,0.0460373237729073,0,
00:00:00.885,0.0240395925939083,0,
00:00:00.8855,0.00882362294942141,0,
00:00:00.886,-0.00536206644028425,0,
00:00:00.8865,-0.0180377531796694,0,
00:00:00.887,-0.0189404524862766,0,
00:00:00.8875,-0.0207211971282959,0,
00:00:00.888,-0.0131377577781677,0,
00:00:00.8885,-0.0439280495047569,0,
00:00:00.889,-0.0333245694637299,0,
00:00:00.8895,0.0335204601287842,0,
00:00:00.89,0.0256518460810184,0,
00:00:00.8905,0.0201218351721764,0,
00:00:00.891,0.0108505235984921,0,
00:00:00.8915,0.00330016389489174,0,
00:00:00.892,0.00163416680879891,0,
00:00:00.8925,-0.021202078089118,0,
00:00:00.893,-0.0401447676122189,0,
00:00:00.8935,-0.0509845204651356,0,
00:00:00.894,-0.0556355901062489,0,
00:00:00.8945,-0.0506255626678467,0,
00:00:00.895,-0.0535378716886044,0,
00:00:00.8955,-0.047429334372282,0,
00:00:00.896,-0.0394930504262447,0,
00:00:00.8965,-0.0251691099256277,0,
00:00:00.897,-0.00606251414865255,0,
00:00:00.8975,-0.0286359842866659,0,
00:00:00.898,0.0734684690833092,0,
00:00:00.8985,0.0932353064417839,0,
00:00:00.899,0.0796338990330696,0,
00:00:00.8995,0.0663599893450737,0,
00:00:00.9,0.0592951774597168,0,
00:00:00.9005,0.0627927482128143,0,
00:00:00.901,0.0497493110597134,0,
00:00:00.9015,0.0198519211262465,0,
00:00:00.902,0.00344849517568946,0,
00:00:00.9025,-0.011702629737556,0,
00:00:00.903,-0.0200773254036903,0,
00:00:00.9035,-0.0227469895035028,0,
00:00:00.904,-0.0208245646208525,0,
00:00:00.9045,-0.015433800406754,0,
00:00:00.905,-0.0126966573297977,0,
00:00:00.9055,-0.0123518416658044,0,
00:00:00.906,-0.0393302850425243,0,
00:00:00.9065,-0.0217226631939411,0,
00:00:00.907,0.0491966344416142,0,
00:00:00.9075,0.0328571833670139,0,
00:00:00.908,0.014391410164535,0,
00:00:00.9085,-0.000853248115163296,0,
00:00:00.909,-0.0288881082087755,0,
00:00:00.9095,-0.0564718656241894,0,
00:00:00.91,-0.0783414766192436,0,
00:00:00.9105,-0.0453337430953979,0,
00:00:00.911,-0.0516866110265255,0,
00:00:00.9115,-0.0531875975430012,0,
00:00:00.912,-0.0559983402490616,0,
00:00:00.9125,-0.099817730486393,0,
00:00:00.913,0.0020151159260422,0,
00:00:00.9135,0.0424695871770382,0,
00:00:00.914,0.0448093414306641,0,
00:00:00.9145,0.0432022996246815,0,
00:00:00.915,0.0390480495989323,0,
00:00:00.9155,0.0335794910788536,0,
00:00:00.916,0.0429011322557926,0,
00:00:00.9165,0.0589050836861134,0,
00:00:00.917,0.0600804835557938,0,
00:00:00.9175,0.0654247850179672,0,
00:00:00.918,0.0442114546895027,0,
00:00:00.9185,0.0237446762621403,0,
00:00:00.919,0.00990240555256605,0,
00:00:00.9195,-0.00310105667449534,0,
00:00:00.92,-0.00979502499103546,0,
00:00:00.9205,-0.0112876165658236,0,
00:00:00.921,-0.00871078483760357,0,
00:00:00.9215,-0.00318928621709347,0,
00:00:00.922,-0.00584663590416312,0,
00:00:00.9225,-0.0100548025220633,0,
00:00:00.923,-0.0107653979212046,0,
00:00:00.9235,-0.00428277393803,0,
00:00:00.924,0.00190983829088509,0,
00:00:00.9245,0.00200991448946297,0,
00:00:00.925,-0.00326879834756255,0,
00:00:00.9255,-0.0132054816931486,0,
00:00:00.926,-0.0320806540548801,0,
00:00:00.9265,-0.0427653752267361,0,
00:00:00.927,-0.0422703512012959,0,
00:00:00.9275,-0.0435901246964931,0,
00:00:00.928,-0.0465219765901566,0,
00:00:00.9285,-0.0457222461700439,0,
00:00:00.929,-0.0320492833852768,0,
00:00:00.9295,-0.0288568530231714,0,
00:00:00.93,-0.0135331340134144,0,
00:00:00.9305,0.0159955136477947,0,
00:00:00.931,0.0308545250445604,0,
00:00:00.9315,0.044464148581028,0,
00:00:00.932,0.0521845258772373,0,
00:00:00.9325,0.0506670661270618,0,
00:00:00.933,0.062740720808506,0,
00:00:00.9335,0.0603943169116974,0,
00:00:00.934,0.0626479238271713,0,
00:00:00.9345,0.0337759107351303,0,
00:00:00.935,0.00742976879701018,0,
00:00:00.9355,-0.0106838690117002,0,
00:00:00.936,-0.0265170466154814,0,
00:00:00.9365,-0.0347610600292683,0,
00:00:00.937,-0.0266454424709082,0,
00:00:00.9375,-0.0211408622562885,0,
00:00:00.938,-0.0128306513652205,0,
00:00:00.9385,-0.0429388508200645,0,
00:00:00.939,-0.0317082144320011,0,
00:00:00.9395,0.0457360073924065,0,
00:00:00.94,-0.0144554581493139,0,
00:00:00.9405,0.0615576691925526,0,
00:00:00.941,0.0636946558952332,0,
00:00:00.9415,0.0282232258468866,0,
00:00:00.942,-0.000739545910619199,0,
00:00:00.9425,-0.0395590960979462,0,
00:00:00.943,-0.0602711588144302,0,
00:00:00.9435,-0.0668865889310837,0,
00:00:00.944,-0.0678266733884811,0,
00:00:00.9445,-0.0646161139011383,0,
00:00:00.945,-0.058443695306778,0,
00:00:00.9455,-0.0502014383673668,0,
00:00:00.946,-0.0405258312821388,0,
00:00:00.9465,-0.0248218979686499,0,
00:00:00.947,0.0103976400569081,0,
00:00:00.9475,0.0348372496664524,0,
00:00:00.948,0.0456425398588181,0,
00:00:00.9485,0.0561407394707203,0,
00:00:00.949,0.0565682426095009,0,
00:00:00.9495,0.064849466085434,0,
00:00:00.95,0.0644402876496315,0,
00:00:00.9505,0.0729817673563957,0,
00:00:00.951,0.0535575598478317,0,
00:00:00.9515,0.0287654511630535,0,
00:00:00.952,0.00106531765777618,0,
00:00:00.9525,-0.0526951253414154,0,
00:00:00.953,0.0160364639014006,0,
00:00:00.9535,0.021599305793643,0,
00:00:00.954,0.00356623902916908,0,
00:00:00.9545,-0.00201301695778966,0,
00:00:00.955,-0.00804215203970671,0,
00:00:00.9555,-0.0145094180479646,0,
00:00:00.956,-0.016477158293128,0,
00:00:00.9565,-0.0103764245286584,0,
00:00:00.957,-0.0038294973783195,0,
00:00:00.9575,-0.00278626056388021,0,
00:00:00.958,-0.00166606390848756,0,
00:00:00.9585,-0.00623228121548891,0,
00:00:00.959,-0.0257508791983128,0,
00:00:00.9595,-0.0417486093938351,0,
00:00:00.96,-0.0450522638857365,0,
00:00:00.9605,-0.0439503230154514,0,
00:00:00.961,-0.0398357845842838,0,
00:00:00.9615,-0.0438027307391167,0,
00:00:00.962,-0.038927398622036,0,
00:00:00.9625,-0.032406747341156,0,
00:00:00.963,-0.0246881507337093,0,
00:00:00.9635,0.0040359515696764,0,
00:00:00.964,0.0283064432442188,0,
00:00:00.9645,0.0337568037211895,0,
00:00:00.965,0.0350673571228981,0,
00:00:00.9655,0.0437272787094116,0,
00:00:00.966,0.0483265705406666,0,
00:00:00.9665,0.0502711869776249,0,
00:00:00.967,0.0507270693778992,0,
00:00:00.9675,0.0506191924214363,0,
00:00:00.968,0.0255454108119011,0,
00:00:00.9685,0.00261800177395344,0,
00:00:00.969,-0.0124686807394028,0,
00:00:00.9695,-0.0156390033662319,0,
00:00:00.97,-0.0192735679447651,0,
00:00:00.9705,-0.0179468337446451,0,
00:00:00.971,-0.0127848153933883,0,
00:00:00.9715,-0.0049090594984591,0,
00:00:00.972,-0.00544210663065314,0,
00:00:00.9725,-0.00273834983818233,0,
00:00:00.973,0.00191561284009367,0,
00:00:00.9735,0.00737397419288754,0,
00:00:00.974,0.0126513354480267,0,
00:00:00.9745,0.016937367618084,0,
00:00:00.975,0.00956957973539829,0,
00:00:00.9755,-0.0022417320869863,0,
00:00:00.976,-0.0228096805512905,0,
00:00:00.9765,-0.0350348725914955,0,
00:00:00.977,-0.0409722663462162,0,
00:00:00.9775,-0.0422869324684143,0,
00:00:00.978,-0.0402879118919373,0,
00:00:00.9785,-0.0359657779335976,0,
00:00:00.979,-0.0300330128520727,0,
00:00:00.9795,-0.0330026894807816,0,
00:00:00.98,-0.0676195695996284,0,
00:00:00.9805,0.0404328964650631,0,
00:00:00.981,0.0395699739456177,0,
00:00:00.9815,0.0306458100676537,0,
00:00:00.982,0.0915703997015953,0,
00:00:00.9825,0.069405123591423,0,
00:00:00.983,0.0598087459802628,0,
00:00:00.9835,0.045697171241045,0,
00:00:00.984,0.0441938042640686,0,
00:00:00.9845,0.0128709888085723,0,
00:00:00.985,-0.0649705678224564,0,
00:00:00.9855,0.00500563904643059,0,
00:00:00.986,-0.0237156841903925,0,
00:00:00.9865,-0.0368079356849194,0,
00:00:00.987,0.0179756246507168,0,
00:00:00.9875,-0.057261910289526,0,
00:00:00.988,0.00560492323711514,0,
00:00:00.9885,0.042170275002718,0,
00:00:00.989,0.0118738515302539,0,
00:00:00.9895,-0.00417285785079002,0,
00:00:00.99,-0.0243597216904163,0,
00:00:00.9905,0.012524327263236,0,
00:00:00.991,0.0112490160390735,0,
00:00:00.9915,0.010059610940516,0,
00:00:00.992,-0.00680065806955099,0,
00:00:00.9925,-0.0308702699840069,0,
00:00:00.993,-0.0453081279993057,0,
00:00:00.9935,-0.0825187340378761,0,
00:00:00.994,-0.0662413164973259,0,
00:00:00.9945,0.000459830451291054,0,
00:00:00.995,-0.0117184491828084,0,
00:00:00.9955,-0.0241288263350725,0,
00:00:00.996,-0.0263029783964157,0,
00:00:00.9965,-0.0153723238036036,0,
00:00:00.997,0.0105925686657429,0,
00:00:00.9975,0.032633438706398,0,
00:00:00.998,0.0363512299954891,0,
00:00:00.9985,0.041404016315937,0,
00:00:00.999,0.0478821061551571,0,
00:00:00.9995,0.0508348569273949,0,
00:00:01,0.0515989325940609,0,
00:00:01.0005,0.0613050051033497,0,
00:00:01.001,0.0480659939348698,0,
00:00:01.0015,0.0231356378644705,0,
00:00:01.002,-0.00451021874323487,0,
00:00:01.0025,-0.0630546435713768,0,
00:00:01.003,0.0124081103131175,0,
00:00:01.0035,0.0283701047301292,0,
00:00:01.004,0.00318435323424637,0,
00:00:01.0045,-0.00776759767904878,0,
00:00:01.005,-0.017621261999011,0,
00:00:01.0055,-0.0265857465565205,0,
00:00:01.006,-0.0249139927327633,0,
00:00:01.0065,-0.0105478540062904,0,
00:00:01.007,-0.00246393820270896,0,
00:00:01.0075,0.00491800112649798,0,
00:00:01.008,0.000799220055341721,0,
00:00:01.0085,-0.0328353643417358,0,
00:00:01.009,-0.0436688475310802,0,
00:00:01.0095,0.0129391346126795,0,
00:00:01.01,-0.0113618606701493,0,
00:00:01.0105,-0.0324656255543232,0,
00:00:01.011,-0.0408411286771297,0,
00:00:01.0115,-0.0444577597081661,0,
00:00:01.012,-0.0494541339576244,0,
00:00:01.0125,-0.060370896011591,0,
00:00:01.013,-0.0151354372501373,0,
00:00:01.0135,0.00693907169625163,0,
00:00:01.014,0.0259063858538866,0,
00:00:01.0145,0.0372895561158657,0,
00:00:01.015,0.0429665856063366,0,
00:00:01.0155,0.0446224063634872,0,
00:00:01.016,0.0236571971327066,0,
00:00:01.0165,0.0367617197334766,0,
00:00:01.017,0.11147353798151,0,
00:00:01.0175,0.0913754776120186,0,
00:00:01.018,0.0446178950369358,0,
00:00:01.0185,0.00937105156481266,0,
00:00:01.019,-0.0154722481966019,0,
00:00:01.0195,-0.0210901536047459,0,
00:00:01.02,-0.026462659239769,0,
00:00:01.0205,-0.0262442864477634,0,
00:00:01.021,-0.021644989028573,0,
00:00:01.0215,-0.0138726253062487,0,
00:00:01.022,-0.0141367176547647,0,
00:00:01.0225,-0.0108775729313493,0,
00:00:01.023,-0.00546484347432852,0,
00:00:01.0235,0.00589545955881476,0,
00:00:01.024,0.0107941776514053,0,
00:00:01.0245,0.00483213644474745,0,
00:00:01.025,-0.0401640944182873,0,
00:00:01.0255,0.0059099649079144,0,
00:00:01.026,-0.00550563866272569,0,
00:00:01.0265,-0.0413886643946171,0,
00:00:01.027,-0.0554111190140247,0,
00:00:01.0275,-0.0576273687183857,0,
00:00:01.028,-0.0610214360058308,0,
00:00:01.0285,-0.0553426630795002,0,
00:00:01.029,-0.0428871773183346,0,
00:00:01.0295,-0.0355413295328617,0,
00:00:01.03,-0.0120629174634814,0,
00:00:01.0305,0.0184126291424036,0,
00:00:01.031,0.043704591691494,0,
00:00:01.0315,0.049644012004137,0,
00:00:01.032,0.0560950636863709,0,
00:00:01.0325,0.0583112165331841,0,
00:00:01.033,0.0628498196601868,0,
00:00:01.0335,0.0646670311689377,0,
00:00:01.034,0.0649770870804787,0,
00:00:01.0345,0.0346200652420521,0,
00:00:01.035,0.012288948521018,0,
00:00:01.0355,-0.00765643268823624,0,
00:00:01.036,-0.0146330697461963,0,
00:00:01.0365,-0.0210608560591936,0,
00:00:01.037,-0.016556715592742,0,
00:00:01.0375,-0.0136788403615355,0,
00:00:01.038,-0.00211672461591661,0,
00:00:01.0385,0.000548071751836687,0,
00:00:01.039,-0.00403374014422297,0,
00:00:01.0395,0.000557489693164825,0,
00:00:01.04,0.0115085011348128,0,
00:00:01.0405,0.0163220539689064,0,
00:00:01.041,0.0155266812071204,0,
00:00:01.0415,0.00965334754437208,0,
00:00:01.042,-0.000744576740544289,0,
00:00:01.0425,-0.0251138303428888,0,
00:00:01.043,-0.0451354198157787,0,
00:00:01.0435,-0.0467466227710247,0,
00:00:01.044,-0.044673815369606,0,
00:00:01.0445,-0.0402134694159031,0,
00:00:01.045,-0.0343190915882587,0,
00:00:01.0455,-0.0226245392113924,0,
00:00:01.046,-0.0218944996595383,0,
00:00:01.0465,-0.00943046435713768,0,
00:00:01.047,0.0119279995560646,0,
00:00:01.0475,0.029795054346323,0,
00:00:01.048,0.0348369404673576,0,
00:00:01.0485,0.0354035496711731,0,
00:00:01.049,0.0280978586524725,0,
00:00:01.0495,0.0256698168814182,0,
00:00:01.05,-0.0173759739845991,0,
00:00:01.0505,0.0609614029526711,0,
00:00:01.051,0.0252628158777952,0,
00:00:01.0515,-0.0161343943327665,0,
00:00:01.052,0.0252883043140173,0,
00:00:01.0525,-0.00578916165977716,0,
00:00:01.053,-0.0210099350661039,0,
00:00:01.0535,-0.0282552223652601,0,
00:00:01.054,-0.0289295502007008,0,
00:00:01.0545,-0.0194333344697952,0,
00:00:01.055,-0.0125164752826095,0,
00:00:01.0555,-0.00802914332598448,0,
00:00:01.056,-0.000908130081370473,0,
00:00:01.0565,0.00751347001641989,0,
00:00:01.057,0.0160565953701735,0,
00:00:01.0575,0.0237172655761242,0,
00:00:01.058,0.0296822227537632,0,
00:00:01.0585,0.0233021192252636,0,
00:00:01.059,0.00177989818621427,0,
00:00:01.0595,-0.016449935734272,0,
00:00:01.06,-0.0272534936666489,0,
00:00:01.0605,-0.0275708995759487,0,
00:00:01.061,-0.0303112845867872,0,
00:00:01.0615,-0.0351739041507244,0,
00:00:01.062,-0.0367070846259594,0,
00:00:01.0625,-0.03569071367383,0,
00:00:01.063,-0.0276385378092527,0,
00:00:01.0635,-0.00415911572054029,0,
00:00:01.064,0.0257893837988377,0,
00:00:01.0645,0.0351271070539951,0,
00:00:01.065,0.0438734702765942,0,
00:00:01.0655,0.0474500022828579,0,
00:00:01.066,0.022480757907033,0,
00:00:01.0665,0.0322105959057808,0,
00:00:01.067,0.0941592007875443,0,
00:00:01.0675,0.0244363620877266,0,
00:00:01.068,0.0468774847686291,0,
00:00:01.0685,0.0297420639544725,0,
00:00:01.069,-0.0117691736668348,0,
00:00:01.0695,-0.0351702719926834,0,
00:00:01.07,-0.0435247868299484,0,
00:00:01.0705,-0.0447727553546429,0,
00:00:01.071,-0.0654486268758774,0,
00:00:01.0715,-0.0502303801476955,0,
00:00:01.072,0.0171107668429613,0,
00:00:01.0725,-0.0333949737250805,0,
00:00:01.073,0.0372782647609711,0,
00:00:01.0735,0.0528832860291004,0,
00:00:01.074,0.0349266603589058,0,
00:00:01.0745,0.0259967464953661,0,
00:00:01.075,0.0134016973897815,0,
00:00:01.0755,-0.00747955357655883,0,
00:00:01.076,-0.0499369166791439,0,
00:00:01.0765,-0.0381245762109756,0,
00:00:01.077,-0.0206335559487343,0,
00:00:01.0775,-0.0299247801303864,0,
00:00:01.078,-0.0398666262626648,0,
00:00:01.0785,-0.0352117791771889,0,
00:00:01.079,-0.0346387475728989,0,
00:00:01.0795,-0.0371934063732624,0,
00:00:01.08,-0.0569515898823738,0,
00:00:01.0805,0.0414758734405041,0,
00:00:01.081,0.0375401712954044,0,
00:00:01.0815,0.0256915595382452,0,
00:00:01.082,0.0839541181921959,0,
00:00:01.0825,0.0594926923513412,0,
00:00:01.083,0.0430369824171066,0,
00:00:01.0835,0.0339444242417812,0,
00:00:01.084,0.0315265543758869,0,
00:00:01.0845,0.00492874439805746,0,
00:00:01.085,-0.0136734554544091,0,
00:00:01.0855,-0.0249028597027063,0,
00:00:01.086,-0.0345549620687962,0,
00:00:01.0865,-0.0372019559144974,0,
00:00:01.087,-0.0340262167155743,0,
00:00:01.0875,-0.026262454688549,0,
00:00:01.088,-0.0151627780869603,0,
00:00:01.0885,-0.0119978254660964,0,
00:00:01.089,-0.0103009073063731,0,
00:00:01.0895,-0.0102113680914044,0,
00:00:01.09,-0.0470357276499271,0,
00:00:01.0905,0.0488350689411163,0,
00:00:01.091,0.077521987259388,0,
00:00:01.0915,0.0527627058327198,0,
00:00:01.092,0.0268646497279406,0,
00:00:01.0925,-0.00501312501728535,0,
00:00:01.093,-0.0212305188179016,0,
00:00:01.0935,-0.0306004881858826,0,
00:00:01.094,-0.029961321502924,0,
00:00:01.0945,-0.0271045416593552,0,
00:00:01.095,-0.0279678124934435,0,
00:00:01.0955,-0.021813852712512,0,
00:00:01.096,-0.0205273572355509,0,
00:00:01.0965,-0.0128854271024466,0,
00:00:01.097,0.0147100687026978,0,
00:00:01.0975,0.0320768877863884,0,
00:00:01.098,0.0364712700247765,0,
00:00:01.0985,0.00619569839909673,0,
00:00:01.099,0.0160563327372074,0,
00:00:01.0995,0.0873341932892799,0,
00:00:01.1,0.068902499973774,0,
00:00:01.1005,0.0529520027339458,0,
00:00:01.101,0.02502222917974,0,
00:00:01.1015,-0.010594074614346,0,
00:00:01.102,-0.0303015522658825,0,
00:00:01.1025,-0.0365516357123852,0,
00:00:01.103,-0.0367495492100716,0,
00:00:01.1035,-0.0369036979973316,0,
00:00:01.104,-0.0317475982010365,0,
00:00:01.1045,-0.0275868438184261,0,
00:00:01.105,-0.0595147646963596,0,
00:00:01.1055,0.017064530402422,0,
00:00:01.106,0.0338948778808117,0,
00:00:01.1065,0.0287620723247528,0,
00:00:01.107,0.0262585207819939,0,
00:00:01.1075,0.0200530923902988,0,
00:00:01.108,0.0203944947570562,0,
00:00:01.1085,-0.0102206692099571,0,
00:00:01.109,-0.0143630784004927,0,
00:00:01.1095,-0.0188584420830011,0,
00:00:01.11,-0.0342292711138725,0,
00:00:01.1105,-0.0430494919419289,0,
00:00:01.111,-0.0470433048903942,0,
00:00:01.1115,-0.0475485473871231,0,
00:00:01.112,-0.0505762994289398,0,
00:00:01.1125,-0.0805952474474907,0,
00:00:01.113,0.0001414312137058,0,
00:00:01.1135,0.0384035594761372,0,
00:00:01.114,0.0431160144507885,0,
00:00:01.1145,0.0423312112689018,0,
00:00:01.115,0.0478763356804848,0,
00:00:01.1155,0.0486841052770615,0,
00:00:01.116,0.0464973971247673,0,
00:00:01.1165,0.047821257263422,0,
00:00:01.117,0.0425242744386196,0,
00:00:01.1175,0.0280318837612867,0,
00:00:01.118,-0.00239203195087612,0,
00:00:01.1185,-0.0233584512025118,0,
00:00:01.119,-0.0307233612984419,0,
00:00:01.1195,-0.0368538126349449,0,
00:00:01.12,-0.0313474833965302,0,
00:00:01.1205,-0.0317948423326015,0,
00:00:01.121,-0.0567255914211273,0,
00:00:01.1215,-0.0394959300756454,0,
00:00:01.122,0.0396154336631298,0,
00:00:01.1225,0.033080205321312,0,
00:00:01.123,0.0255291014909744,0,
00:00:01.1235,0.0267807692289352,0,
00:00:01.124,0.0289770420640707,0,
00:00:01.1245,0.0309909600764513,0,
00:00:01.125,0.0319157764315605,0,
00:00:01.1255,0.0160172656178474,0,
00:00:01.126,-0.00819298624992371,0,
00:00:01.1265,-0.0187788251787424,0,
00:00:01.127,-0.0242666956037283,0,
00:00:01.1275,-0.0262384973466396,0,
00:00:01.128,-0.0309102945029736,0,
00:00:01.1285,-0.027784900739789,0,
00:00:01.129,-0.0289479903876781,0,
00:00:01.1295,-0.0283568650484085,0,
00:00:01.13,-0.0563865564763546,0,
00:00:01.1305,0.0453030876815319,0,
00:00:01.131,0.0684621632099152,0,
00:00:01.1315,0.046004194766283,0,
00:00:01.132,0.0348482355475426,0,
00:00:01.1325,0.0283716320991516,0,
00:00:01.133,0.0314573980867863,0,
00:00:01.1335,0.0325567424297333,0,
00:00:01.134,0.0278679002076387,0,
00:00:01.1345,-0.000433456938480958,0,
00:00:01.135,-0.0202008597552776,0,
00:00:01.1355,-0.0371141843497753,0,
00:00:01.136,-0.0757745280861855,0,
00:00:01.1365,-0.0641939863562584,0,
00:00:01.137,0.00117253023199737,0,
00:00:01.1375,-0.00927888229489326,0,
00:00:01.138,-0.0175106674432755,0,
00:00:01.1385,-0.023930536583066,0,
00:00:01.139,-0.0240294616669416,0,
00:00:01.1395,-0.0146676944568753,0,
00:00:01.14,-0.0189429968595505,0,
00:00:01.1405,0.0460469871759415,0,
00:00:01.141,0.0461210682988167,0,
00:00:01.1415,0.0405119024217129,0,
00:00:01.142,0.0297688283026218,0,
00:00:01.1425,0.00445707887411118,0,
00:00:01.143,-0.0120579656213522,0,
00:00:01.1435,-0.0170212388038635,0,
00:00:01.144,-0.0236065853387117,0,
00:00:01.1445,-0.0317361429333687,0,
00:00:01.145,-0.0813028290867805,0,
00:00:01.1455,0.0042128604836762,0,
00:00:01.146,0.0203900542110205,0,
00:00:01.1465,0.0128948446363211,0,
00:00:01.147,0.017718069255352,0,
00:00:01.1475,0.0271955039352179,0,
00:00:01.148,0.0303990393877029,0,
00:00:01.1485,0.0292594283819199,0,
00:00:01.149,0.0355270132422447,0,
00:00:01.1495,0.0380110368132591,0,
00:00:01.15,0.0332739949226379,0,
00:00:01.1505,0.0339623242616653,0,
00:00:01.151,0.0144988149404526,0,
00:00:01.1515,-0.0140984421595931,0,
00:00:01.152,-0.0330728776752949,0,
00:00:01.1525,-0.0434020385146141,0,
00:00:01.153,-0.0411791987717152,0,
00:00:01.1535,-0.0389702692627907,0,
00:00:01.154,-0.0315456986427307,0,
00:00:01.1545,-0.0202320069074631,0,
00:00:01.155,-0.016385966911912,0,
00:00:01.1555,-0.00861767772585154,0,
00:00:01.156,0.00151764403562993,0,
00:00:01.1565,0.0126017015427351,0,
00:00:01.157,0.02338189445436,0,
00:00:01.1575,0.0327949486672878,0,
00:00:01.158,0.0299481302499771,0,
00:00:01.1585,0.021851809695363,0,
00:00:01.159,-0.000988458748906851,0,
00:00:01.1595,-0.0152610680088401,0,
00:00:01.16,-0.0182569641619921,0,
00:00:01.1605,-0.0181684605777264,0,
00:00:01.161,-0.0162589959800243,0,
00:00:01.1615,-0.0184449795633554,0,
00:00:01.162,-0.0189695525914431,0,
00:00:01.1625,-0.0132950004190207,0,
00:00:01.163,-0.00799694936722517,0,
00:00:01.1635,0.00708593707531691,0,
00:00:01.164,0.0245564337819815,0,
00:00:01.1645,0.0287319272756577,0,
00:00:01.165,0.0281350929290056,0,
00:00:01.1655,0.0245522987097502,0,
00:00:01.166,0.0295714326202869,0,
00:00:01.1665,0.0268070790916681,0,
00:00:01.167,0.0290057584643364,0,
00:00:01.1675,0.0106870131567121,0,
00:00:01.168,-0.0170397758483887,0,
00:00:01.1685,-0.0303159076720476,0,
00:00:01.169,-0.0413957089185715,0,
00:00:01.1695,-0.0448143146932125,0,
00:00:01.17,-0.0417459830641747,0,
00:00:01.1705,-0.0284272953867912,0,
00:00:01.171,-0.0526362955570221,0,
00:00:01.1715,-0.0347229838371277,0,
00:00:01.172,0.0449946038424969,0,
00:00:01.1725,-0.0062106684781611,0,
00:00:01.173,0.0586459748446941,0,
00:00:01.1735,0.0645696073770523,0,
00:00:01.174,0.0492062084376812,0,
00:00:01.1745,0.0370755568146706,0,
00:00:01.175,0.0268506910651922,0,
00:00:01.1755,0.00240869913250208,0,
00:00:01.176,-0.0180594474077225,0,
00:00:01.1765,-0.0256098750978708,0,
00:00:01.177,-0.0236878097057343,0,
00:00:01.1775,-0.0251585878431797,0,
00:00:01.178,-0.0296541452407837,0,
00:00:01.1785,-0.021597171202302,0,
00:00:01.179,-0.0193439796566963,0,
00:00:01.1795,-0.0166111532598734,0,
00:00:01.18,0.00161629577632993,0,
00:00:01.1805,0.0264865718781948,0,
00:00:01.181,0.0310290511697531,0,
00:00:01.1815,0.035370659083128,0,
00:00:01.182,0.0350341983139515,0,
00:00:01.1825,0.0368440337479115,0,
00:00:01.183,0.0360122099518776,0,
00:00:01.1835,0.0289711225777864,0,
00:00:01.184,0.0232129786163569,0,
00:00:01.1845,-0.00566347548738122,0,
00:00:01.185,-0.030588511377573,0,
00:00:01.1855,-0.0459538586437702,0,
00:00:01.186,-0.0528301708400249,0,
00:00:01.1865,-0.0574316494166851,0,
00:00:01.187,-0.0597310103476048,0,
00:00:01.1875,-0.0900445431470871,0,
00:00:01.188,-0.000360925187123939,0,
00:00:01.1885,-0.00688109220936894,0,
00:00:01.189,-0.0122713958844543,0,
00:00:01.1895,0.0481236837804317,0,
00:00:01.19,-0.00395953562110662,0,
00:00:01.1905,0.0589735023677349,0,
00:00:01.191,0.0419942624866962,0,
00:00:01.1915,0.0233222674578428,0,
00:00:01.192,0.0581654906272888,0,
00:00:01.1925,-0.028421251103282,0,
00:00:01.193,0.0141575392335653,0,
00:00:01.1935,0.013533347286284,0,
00:00:01.194,-0.0159733090549707,0,
00:00:01.1945,-0.0271967835724354,0,
00:00:01.195,-0.034417774528265,0,
00:00:01.1955,-0.0284968055784702,0,
00:00:01.196,-0.0277291275560856,0,
00:00:01.1965,-0.0157607886940241,0,
00:00:01.197,0.00976322591304779,0,
00:00:01.1975,0.0252738166600466,0,
00:00:01.198,0.0281053949147463,0,
00:00:01.1985,0.0317534618079662,0,
00:00:01.199,0.0316137112677097,0,
00:00:01.1995,0.0393853038549423,0,
00:00:01.2,0.0387734547257423,0,
00:00:01.2005,0.0375786349177361,0,
00:00:01.201,-0.0184177979826927,0,
00:00:01.2015,-0.0387815460562706,0,
00:00:01.202,0.0248826164752245,0,
00:00:01.2025,-0.00366075616329908,0,
00:00:01.203,-0.0264947284013033,0,
00:00:01.2035,-0.0388377010822296,0,
00:00:01.204,-0.0374597422778606,0,
00:00:01.2045,-0.0355072282254696,0,
00:00:01.205,-0.0432842634618282,0,
00:00:01.2055,-0.0033463875297457,0,
00:00:01.206,0.0064208135008812,0,
00:00:01.2065,0.0121502913534641,0,
00:00:01.207,0.0138592068105936,0,
00:00:01.2075,0.021620474755764,0,
00:00:01.208,0.0278722569346428,0,
00:00:01.2085,-0.00832802429795265,0,
00:00:01.209,-0.0218107234686613,0,
00:00:01.2095,0.0419580154120922,0,
00:00:01.21,0.0168525762856007,0,
00:00:01.2105,-0.00636957073584199,0,
00:00:01.211,-0.0180162955075502,0,
00:00:01.2115,-0.0258663538843393,0,
00:00:01.212,-0.0258076190948486,0,
00:00:01.2125,-0.0297979880124331,0,
00:00:01.213,-0.0216459054499865,0,
00:00:01.2135,0.00086498778546229,0,
00:00:01.214,0.0190675128251314,0,
00:00:01.2145,0.0238669849932194,0,
00:00:01.215,0.0238421484827995,0,
00:00:01.2155,0.0208270139992237,0,
00:00:01.216,0.0264478344470263,0,
00:00:01.2165,0.0243477243930101,0,
00:00:01.217,0.0222734026610851,0,
00:00:01.2175,-0.0340415798127651,0,
00:00:01.218,0.0210667159408331,0,
00:00:01.2185,0.015495446510613,0,
00:00:01.219,-0.0108174504712224,0,
00:00:01.2195,-0.0266239400953054,0,
00:00:01.22,-0.0283897630870342,0,
00:00:01.2205,-0.0290238186717033,0,
00:00:01.221,-0.0185876451432705,0,
00:00:01.2215,-0.0100316070020199,0,
00:00:01.222,-0.00843305978924036,0,
00:00:01.2225,0.00241197971627116,0,
00:00:01.223,0.0194706171751022,0,
00:00:01.2235,0.0300302896648645,0,
00:00:01.224,0.0394348353147507,0,
00:00:01.2245,0.0366806611418724,0,
00:00:01.225,0.0336952432990074,0,
00:00:01.2255,0.0145621672272682,0,
00:00:01.226,-0.0424661748111248,0,
00:00:01.2265,-0.0374259725213051,0,
00:00:01.227,0.0295477136969566,0,
00:00:01.2275,0.00597235932946205,0,
00:00:01.228,-0.0168493762612343,0,
00:00:01.2285,-0.0287379790097475,0,
00:00:01.229,-0.0320318266749382,0,
00:00:01.2295,-0.02860077470541,0,
00:00:01.23,-0.0148922074586153,0,
00:00:01.2305,0.00665293820202351,0,
00:00:01.231,0.0189942214637995,0,
00:00:01.2315,0.0194547213613987,0,
00:00:01.232,0.0114664686843753,0,
00:00:01.2325,-0.0320782177150249,0,
00:00:01.233,0.0548401214182377,0,
00:00:01.2335,0.0747941881418228,0,
00:00:01.234,0.0434694699943066,0,
00:00:01.2345,-0.00546244671568275,0,
00:00:01.235,-0.0355205461382866,0,
00:00:01.2355,-0.0493459738790989,0,
00:00:01.236,-0.0746332332491875,0,
00:00:01.2365,-0.0471350476145744,0,
00:00:01.237,-0.0245829895138741,0,
00:00:01.2375,-0.0163254197686911,0,
00:00:01.238,-0.0142748951911926,0,
00:00:01.2385,-0.00719456560909748,0,
00:00:01.239,0.00318825081922114,0,
00:00:01.2395,0.0102510992437601,0,
00:00:01.24,-0.0262835342437029,0,
00:00:01.2405,0.0695838630199432,0,
00:00:01.241,0.092847540974617,0,
00:00:01.2415,0.0685165598988533,0,
00:00:01.242,0.0373177826404572,0,
00:00:01.2425,0.00575485778972507,0,
00:00:01.243,-0.0160389896482229,0,
00:00:01.2435,-0.020441809669137,0,
00:00:01.244,-0.0220637023448944,0,
00:00:01.2445,-0.0270744618028402,0,
00:00:01.245,-0.0249073319137096,0,
00:00:01.2455,-0.0275579653680325,0,
00:00:01.246,-0.0288767628371716,0,
00:00:01.2465,-0.0189731121063232,0,
00:00:01.247,-0.000446840946096927,0,
00:00:01.2475,0.00451100151985884,0,
00:00:01.248,0.0094858231022954,0,
00:00:01.2485,-0.0201116427779198,0,
00:00:01.249,-0.0093399016186595,0,
00:00:01.2495,0.0682100877165794,0,
00:00:01.25,0.0501415207982063,0,
00:00:01.2505,0.0402271114289761,0,
00:00:01.251,0.00764491595327854,0,
00:00:01.2515,-0.0254707913845778,0,
00:00:01.252,-0.0421005710959435,0,
00:00:01.2525,-0.0497920960187912,0,
00:00:01.253,-0.0497185625135899,0,
00:00:01.2535,-0.0431694127619267,0,
00:00:01.254,-0.036530788987875,0,
00:00:01.2545,-0.0198571905493736,0,
00:00:01.255,-0.011100004427135,0,
00:00:01.2555,-0.00395672349259257,0,
00:00:01.256,0.0163226202130318,0,
00:00:01.2565,0.030399352312088,0,
00:00:01.257,0.0384816266596317,0,
00:00:01.2575,0.00566151179373264,0,
00:00:01.258,0.0819189473986626,0,
00:00:01.2585,0.0881712809205055,0,
00:00:01.259,0.0493019260466099,0,
00:00:01.2595,0.0210045985877514,0,
00:00:01.26,0.00577587308362126,0,
00:00:01.2605,0.000256422470556572,0,
00:00:01.261,-0.00832820869982243,0,
00:00:01.2615,-0.00948136113584042,0,
00:00:01.262,-0.01525754109025,0,
00:00:01.2625,-0.0245721638202667,0,
00:00:01.263,-0.0162173453718424,0,
00:00:01.2635,0.000673165486659855,0,
00:00:01.264,0.0089294072240591,0,
00:00:01.2645,0.0107994275167584,0,
00:00:01.265,0.00833986513316631,0,
00:00:01.2655,0.00338487979024649,0,
00:00:01.266,-0.0325886011123657,0,
00:00:01.2665,-0.0251329354941845,0,
00:00:01.267,0.0516437888145447,0,
00:00:01.2675,0.0197626817971468,0,
00:00:01.268,-0.0186007414013147,0,
00:00:01.2685,-0.0398697853088379,0,
00:00:01.269,-0.056584008038044,0,
00:00:01.2695,-0.0535287298262119,0,
00:00:01.27,-0.0498488433659077,0,
00:00:01.2705,-0.0454085692763329,0,
00:00:01.271,-0.0302768088877201,0,
00:00:01.2715,-0.0174131598323584,0,
00:00:01.272,-0.00688673835247755,0,
00:00:01.2725,0.00614522816613317,0,
00:00:01.273,0.0251537449657917,0,
00:00:01.2735,0.0374078862369061,0,
00:00:01.274,0.0482363663613796,0,
00:00:01.2745,0.0516427978873253,0,
00:00:01.275,0.048196829855442,0,
00:00:01.2755,0.0284932181239128,0,
00:00:01.276,0.00590414693579078,0,
00:00:01.2765,-0.00408798549324274,0,
00:00:01.277,-0.00991569366306067,0,
00:00:01.2775,-0.00802816729992628,0,
00:00:01.278,-0.0108431270346045,0,
00:00:01.2785,-0.0125579182058573,0,
00:00:01.279,-0.0135867055505514,0,
00:00:01.2795,-0.00906934402883053,0,
00:00:01.28,0.00474213110283017,0,
00:00:01.2805,0.0306090582162142,0,
00:00:01.281,0.0302744787186384,0,
00:00:01.2815,0.0304345861077309,0,
00:00:01.282,0.0266460496932268,0,
00:00:01.2825,0.0207358151674271,0,
00:00:01.283,0.0192736070603132,0,
00:00:01.2835,0.0171882696449757,0,
00:00:01.284,0.00558884721249342,0,
00:00:01.2845,-0.0271098911762238,0,
00:00:01.285,-0.0540743991732597,0,
00:00:01.2855,-0.0598977543413639,0,
00:00:01.286,-0.0635730400681496,0,
00:00:01.2865,-0.0598401576280594,0,
00:00:01.287,-0.0550810806453228,0,
00:00:01.2875,-0.0443861223757267,0,
00:00:01.288,-0.0293763298541307,0,
00:00:01.2885,-0.0166552439332008,0,
00:00:01.289,-0.00139823241624981,0,
00:00:01.2895,0.0148222018033266,0,
00:00:01.29,0.0356139242649078,0,
00:00:01.2905,0.0484067723155022,0,
00:00:01.291,0.0536913722753525,0,
00:00:01.2915,0.0570172853767872,0,
00:00:01.292,0.0426085293292999,0,
00:00:01.2925,0.0189630016684532,0,
00:00:01.293,0.00803184416145086,0,
00:00:01.2935,0.0013318439014256,0,
00:00:01.294,-0.00264882482588291,0,
00:00:01.2945,-0.0150499194860458,0,
00:00:01.295,-0.064089372754097,0,
00:00:01.2955,0.0205573458224535,0,
00:00:01.296,-0.000339704041834921,0,
00:00:01.2965,-0.00135061226319522,0,
00:00:01.297,0.0784685835242271,0,
00:00:01.2975,0.0528049133718014,0,
00:00:01.298,0.0225333329290152,0,
00:00:01.2985,0.00534981349483132,0,
00:00:01.299,-0.00043113945866935,0,
00:00:01.2995,-0.00136778585147113,0,
00:00:01.3,-0.00259771104902029,0,
00:00:01.3005,0.00198732642456889,0,
00:00:01.301,-0.01824408210814,0,
00:00:01.3015,-0.0409787781536579,0,
00:00:01.302,-0.0540468469262123,0,
00:00:01.3025,-0.0534844771027565,0,
00:00:01.303,-0.0468246452510357,0,
00:00:01.3035,-0.0402166359126568,0,
00:00:01.304,-0.0285422448068857,0,
00:00:01.3045,-0.0182567872107029,0,
00:00:01.305,-0.0546353086829185,0,
00:00:01.3055,0.0244679655879736,0,
00:00:01.306,0.0239135790616274,0,
00:00:01.3065,0.0266409441828728,0,
00:00:01.307,0.0962158590555191,0,
00:00:01.3075,0.0786125883460045,0,
00:00:01.308,0.0586196705698967,0,
00:00:01.3085,0.0111991418525577,0,
00:00:01.309,-0.0117552829906344,0,
00:00:01.3095,0.0290311332792044,0,
00:00:01.31,-0.0087314872071147,0,
00:00:01.3105,0.013884000480175,0,
00:00:01.311,-0.00370367872528732,0,
00:00:01.3115,-0.0220748260617256,0,
00:00:01.312,-0.0357783101499081,0,
00:00:01.3125,-0.0857196822762489,0,
00:00:01.313,0.00372556434012949,0,
00:00:01.3135,0.0423949211835861,0,
00:00:01.314,0.0361669808626175,0,
00:00:01.3145,0.0211637727916241,0,
00:00:01.315,0.0155608281493187,0,
00:00:01.3155,0.00810047890990973,0,
00:00:01.316,0.0103558292612433,0,
00:00:01.3165,0.00590598909184337,0,
00:00:01.317,0.00744126737117767,0,
00:00:01.3175,-0.0105950348079205,0,
00:00:01.318,-0.0371883474290371,0,
00:00:01.3185,-0.0536094531416893,0,
00:00:01.319,-0.0608860142529011,0,
00:00:01.3195,-0.0602005571126938,0,
00:00:01.32,-0.0528566874563694,0,
00:00:01.3205,-0.0402411669492722,0,
00:00:01.321,-0.0589109398424625,0,
00:00:01.3215,-0.0358531102538109,0,
00:00:01.322,0.0535294935107231,0,
00:00:01.3225,0.0452141687273979,0,
00:00:01.323,0.0415925830602646,0,
00:00:01.3235,0.0458811558783054,0,
00:00:01.324,0.050171822309494,0,
00:00:01.3245,0.0482988394796848,0,
00:00:01.325,0.0456981770694256,0,
00:00:01.3255,0.0214775167405605,0,
00:00:01.326,0.00543735781684518,0,
00:00:01.3265,-0.00474373996257782,0,
00:00:01.327,-0.0109139131382108,0,
00:00:01.3275,-0.00946426670998335,0,
00:00:01.328,-0.00773940980434418,0,
00:00:01.3285,-0.0112379807978868,0,
00:00:01.329,-0.0087993498891592,0,
00:00:01.3295,-0.0169264674186707,0,
00:00:01.33,-0.0427849963307381,0,
00:00:01.3305,0.0493714585900307,0,
00:00:01.331,0.0694257616996765,0,
00:00:01.3315,0.0440001152455807,0,
00:00:01.332,0.0251897051930428,0,
00:00:01.3325,0.0178766790777445,0,
00:00:01.333,0.00548815447837114,0,
00:00:01.3335,-0.014479941688478,0,
00:00:01.334,-0.00856770295649767,0,
00:00:01.3345,-0.0170842912048101,0,
00:00:01.335,-0.0455739311873913,0,
00:00:01.3355,-0.0626373142004013,0,
00:00:01.336,-0.0947413891553879,0,
00:00:01.3365,-0.0916416198015213,0,
00:00:01.337,-0.01088663097471,0,
00:00:01.3375,-0.0131317544728518,0,
00:00:01.338,-0.00892616901546717,0,
00:00:01.3385,-0.0101445857435465,0,
00:00:01.339,0.00417389674112201,0,
00:00:01.3395,0.019397484138608,0,
00:00:01.34,0.0290948376059532,0,
00:00:01.3405,0.0434033051133156,0,
00:00:01.341,0.0548184290528297,0,
00:00:01.3415,0.0575800538063049,0,
00:00:01.342,0.0424711853265762,0,
00:00:01.3425,0.0180277805775404,0,
00:00:01.343,0.0012231117580086,0,
00:00:01.3435,-1.49480692925863E-05,0,
00:00:01.344,-2.86804424831644E-06,0,
00:00:01.3445,-0.0096500851213932,0,
00:00:01.345,-0.0469233617186546,0,
00:00:01.3455,0.020941624417901,0,
00:00:01.346,0.0270645190030336,0,
00:00:01.3465,0.0106796873733401,0,
00:00:01.347,0.017892187461257,0,
00:00:01.3475,0.0133747635409236,0,
00:00:01.348,0.00559220789000392,0,
00:00:01.3485,-0.00371906091459095,0,
00:00:01.349,-0.00803636945784092,0,
00:00:01.3495,-0.00742390193045139,0,
00:00:01.35,-0.00203479244373739,0,
00:00:01.3505,-0.00216661323793232,0,
00:00:01.351,-0.0256424080580473,0,
00:00:01.3515,-0.0403408296406269,0,
00:00:01.352,-0.0519913025200367,0,
00:00:01.3525,-0.0551566109061241,0,
00:00:01.353,-0.0510656647384167,0,
00:00:01.3535,-0.0711624622344971,0,
00:00:01.354,-0.0487382635474205,0,
00:00:01.3545,0.0309098698198795,0,
00:00:01.355,0.0265285056084394,0,
00:00:01.3555,0.0224610958248377,0,
00:00:01.356,0.0282112695276737,0,
00:00:01.3565,0.0355888344347477,0,
00:00:01.357,0.0481473468244076,0,
00:00:01.3575,0.0482782237231731,0,
00:00:01.358,0.0528504475951195,0,
00:00:01.3585,0.0445629768073559,0,
00:00:01.359,0.0205456372350454,0,
00:00:01.3595,-0.000788063043728471,0,
00:00:01.36,-0.0554224886000156,0,
00:00:01.3605,0.0208417996764183,0,
00:00:01.361,0.0292778573930264,0,
00:00:01.3615,0.00483994605019689,0,
00:00:01.362,-0.00935183465480804,0,
00:00:01.3625,-0.0153521364554763,0,
00:00:01.363,-0.0147842532023787,0,
00:00:01.3635,-0.0139248361811042,0,
00:00:01.364,0.0176914110779762,0,
00:00:01.3645,0.0324407443404198,0,
00:00:01.365,0.0193933676928282,0,
00:00:01.3655,0.0162624809890985,0,
00:00:01.366,0.0217463988810778,0,
00:00:01.3665,0.0145613560453057,0,
00:00:01.367,0.0038318601436913,0,
00:00:01.3675,-0.0133539447560906,0,
00:00:01.368,-0.0390669479966164,0,
00:00:01.3685,-0.0847248062491417,0,
00:00:01.369,-0.0782645419239998,0,
00:00:01.3695,-0.0111089665442705,0,
00:00:01.37,-0.0192424915730953,0,
00:00:01.3705,-0.0245545823127031,0,
00:00:01.371,-0.017410246655345,0,
00:00:01.3715,-0.0110396463423967,0,
00:00:01.372,-0.00575553439557552,0,
00:00:01.3725,0.0131055563688278,0,
00:00:01.373,0.0261239651590586,0,
00:00:01.3735,0.0384517908096313,0,
00:00:01.374,0.0489271730184555,0,
00:00:01.3745,0.0516011640429497,0,
00:00:01.375,0.0420842804014683,0,
00:00:01.3755,0.0173731669783592,0,
00:00:01.376,0.000773288134951144,0,
00:00:01.3765,-0.0100041478872299,0,
00:00:01.377,-0.0217910744249821,0,
00:00:01.3775,-0.0747929066419601,0,
00:00:01.378,0.0122900726273656,0,
00:00:01.3785,0.023521289229393,0,
00:00:01.379,-0.0040686447173357,0,
00:00:01.3795,-0.0105096306651831,0,
00:00:01.38,-0.00529643567278981,0,
00:00:01.3805,0.0091171283274889,0,
00:00:01.381,0.0106432614848018,0,
00:00:01.3815,0.00791023951023817,0,
00:00:01.382,0.00279230531305075,0,
00:00:01.3825,0.00694419397041202,0,
00:00:01.383,0.00402377778664231,0,
00:00:01.3835,0.00679562147706747,0,
00:00:01.384,0.00482606654986739,0,
00:00:01.3845,-0.0248639285564423,0,
00:00:01.385,-0.0439560003578663,0,
00:00:01.3855,-0.053471889346838,0,
00:00:01.386,-0.0495798774063587,0,
00:00:01.3865,-0.0449490658938885,0,
00:00:01.387,-0.0344776026904583,0,
00:00:01.3875,-0.0196396540850401,0,
00:00:01.388,-0.0119543252512813,0,
00:00:01.3885,-0.00522117270156741,0,
00:00:01.389,0.00516392104327679,0,
00:00:01.3895,0.0224515479058027,0,
00:00:01.39,0.0437467880547047,0,
00:00:01.3905,0.0565143302083015,0,
00:00:01.391,0.0663101598620415,0,
00:00:01.3915,0.0623721517622471,0,
00:00:01.392,0.0468554757535458,0,
00:00:01.3925,0.0218081381171942,0,
00:00:01.393,0.00926109869033098,0,
00:00:01.3935,0.00583196757361293,0,
00:00:01.394,0.00375843094661832,0,
00:00:01.3945,-0.00282163987867534,0,
00:00:01.395,-0.0080714114010334,0,
00:00:01.3955,-0.00735127460211515,0,
00:00:01.396,-0.0171540826559067,0,
00:00:01.3965,-0.00950211193412542,0,
00:00:01.397,0.00667299143970013,0,
00:00:01.3975,0.0143592553213239,0,
00:00:01.398,0.0109005542472005,0,
00:00:01.3985,0.00977658107876778,0,
00:00:01.399,0.00634072534739971,0,
00:00:01.3995,0.00720489583909512,0,
00:00:01.4,0.00231264973990619,0,
00:00:01.4005,-0.00585177773609757,0,
00:00:01.401,-0.0303530003875494,0,
00:00:01.4015,-0.0556906163692474,0,
00:00:01.402,-0.0749897137284279,0,
00:00:01.4025,-0.118361823260784,0,
00:00:01.403,-0.0427333526313305,0,
00:00:01.4035,-0.0529988631606102,0,
00:00:01.404,-0.0434499010443687,0,
00:00:01.4045,0.0413351207971573,0,
00:00:01.405,0.0306610353291035,0,
00:00:01.4055,0.0267172176390886,0,
00:00:01.406,0.0324703007936478,0,
00:00:01.4065,0.0447416305541992,0,
00:00:01.407,0.0557322800159454,0,
00:00:01.4075,0.0643870010972023,0,
00:00:01.408,0.0648690685629845,0,
00:00:01.4085,0.0478855185210705,0,
00:00:01.409,0.0218986291438341,0,
00:00:01.4095,0.00381197314709425,0,
00:00:01.41,-0.00352901918813586,0,
00:00:01.4105,-0.00816489662975073,0,
00:00:01.411,-0.0111969038844109,0,
00:00:01.4115,-0.018374165520072,0,
00:00:01.412,-0.0187547206878662,0,
00:00:01.4125,-0.0240096841007471,0,
00:00:01.413,-0.0126647148281336,0,
00:00:01.4135,0.00638393452391028,0,
00:00:01.414,0.0111551564186811,0,
00:00:01.4145,0.0104062044993043,0,
00:00:01.415,0.0111777139827609,0,
00:00:01.4155,0.00389984901994467,0,
00:00:01.416,0.00663837324827909,0,
00:00:01.4165,0.00795002747327089,0,
00:00:01.417,0.00912570394575596,0,
00:00:01.4175,-0.0139508163556457,0,
00:00:01.418,-0.0389830581843853,0,
00:00:01.4185,-0.0488071516156197,0,
00:00:01.419,-0.0558609031140804,0,
00:00:01.4195,-0.0448343753814697,0,
00:00:01.42,-0.0397986695170403,0,
00:00:01.4205,-0.034192968159914,0,
00:00:01.421,-0.0131527921184897,0,
00:00:01.4215,-0.00607560155913234,0,
00:00:01.422,-0.000234699036809616,0,
00:00:01.4225,-0.0311548858880997,0,
00:00:01.423,0.0604951269924641,0,
00:00:01.4235,0.0571417734026909,0,
00:00:01.424,0.0400248840451241,0,
00:00:01.4245,0.10210332274437,0,
00:00:01.425,0.0665063709020615,0,
00:00:01.4255,0.0159122403711081,0,
00:00:01.426,-0.0156282093375921,0,
00:00:01.4265,-0.0274477694183588,0,
00:00:01.427,-0.034544724971056,0,
00:00:01.4275,-0.0685254484415054,0,
00:00:01.428,0.00286941952072084,0,
00:00:01.4285,-0.0127465892583132,0,
00:00:01.429,-0.0247221775352955,0,
00:00:01.4295,0.0417905226349831,0,
00:00:01.43,0.0363765507936478,0,
00:00:01.4305,0.0263078510761261,0,
00:00:01.431,0.0184886883944273,0,
00:00:01.4315,0.00829373858869076,0,
00:00:01.432,-0.0026006824336946,0,
00:00:01.4325,-0.0378587618470192,0,
00:00:01.433,0.0306913368403912,0,
00:00:01.4335,0.04757384583354,0,
00:00:01.434,0.0101018929854035,0,
00:00:01.4345,-0.0269706342369318,0,
00:00:01.435,-0.0466440282762051,0,
00:00:01.4355,-0.0565025769174099,0,
00:00:01.436,-0.0577726177871227,0,
00:00:01.4365,-0.0518122725188732,0,
00:00:01.437,-0.0400720536708832,0,
00:00:01.4375,-0.0240524113178253,0,
00:00:01.438,-0.0152962207794189,0,
00:00:01.4385,-0.00260517396964133,0,
00:00:01.439,0.0122752673923969,0,
00:00:01.4395,0.0327629335224628,0,
00:00:01.44,0.046086136251688,0,
00:00:01.4405,0.0575467087328434,0,
00:00:01.441,0.0310267340391874,0,
00:00:01.4415,0.0352084115147591,0,
00:00:01.442,0.0868693292140961,0,
00:00:01.4425,0.0469017438590527,0,
00:00:01.443,0.0168834012001753,0,
00:00:01.4435,-0.00047434403677471,0,
00:00:01.444,-0.00831997580826283,0,
00:00:01.4445,-0.0192273445427418,0,
00:00:01.445,-0.0225153379142284,0,
00:00:01.4455,-0.0300754643976688,0,
00:00:01.446,-0.0256313849240541,0,
00:00:01.4465,-0.0118859466165304,0,
00:00:01.447,0.00395390158519149,0,
00:00:01.4475,0.0114130405709147,0,
00:00:01.448,0.007844477891922,0,
00:00:01.4485,0.0067334333434701,0,
00:00:01.449,0.0034349134657532,0,
00:00:01.4495,-0.00547809991985559,0,
00:00:01.45,-0.0475114062428474,0,
00:00:01.4505,0.0178159903734922,0,
00:00:01.451,0.00418980931863189,0,
00:00:01.4515,-0.0286895371973515,0,
00:00:01.452,-0.0494358278810978,0,
00:00:01.4525,-0.0594501718878746,0,
00:00:01.453,-0.0552466921508312,0,
00:00:01.4535,-0.0498022511601448,0,
00:00:01.454,-0.0382810495793819,0,
00:00:01.4545,-0.0223790518939495,0,
00:00:01.455,-0.00877323653548956,0,
00:00:01.4555,0.00729154096916318,0,
00:00:01.456,-0.010948178358376,0,
00:00:01.4565,0.014503207989037,0,
00:00:01.457,0.107052899897099,0,
00:00:01.4575,0.0967943593859673,0,
00:00:01.458,0.0818430185317993,0,
00:00:01.4585,0.0575141608715057,0,
00:00:01.459,0.0255572274327278,0,
00:00:01.4595,0.0027052010409534,0,
00:00:01.46,-0.0183865986764431,0,
00:00:01.4605,0.0169528927654028,0,
00:00:01.461,0.0086817042902112,0,
00:00:01.4615,-0.00326863420195878,0,
00:00:01.462,-0.0129662463441491,0,
00:00:01.4625,-0.0207244586199522,0,
00:00:01.463,-0.0165961496531963,0,
00:00:01.4635,0.00188563601113856,0,
00:00:01.464,0.0112528130412102,0,
00:00:01.4645,-0.0011113187065348,0,
00:00:01.465,-0.0541432201862335,0,
00:00:01.4655,0.0296936482191086,0,
00:00:01.466,0.0416220240294933,0,
00:00:01.4665,0.0138947507366538,0,
00:00:01.467,0.00767621817067266,0,
00:00:01.4675,-0.0209595207124949,0,
00:00:01.468,-0.0449263751506805,0,
00:00:01.4685,-0.0586321018636227,0,
00:00:01.469,-0.0631944537162781,0,
00:00:01.4695,-0.0598850958049297,0,
00:00:01.47,-0.0500927716493607,0,
00:00:01.4705,-0.0352824330329895,0,
00:00:01.471,-0.0219701509922743,0,
00:00:01.4715,-0.0103273177519441,0,
00:00:01.472,0.00436908286064863,0,
00:00:01.4725,0.0204389411956072,0,
00:00:01.473,0.0413799397647381,0,
00:00:01.4735,0.0244031380861998,0,
00:00:01.474,0.0430217497050762,0,
00:00:01.4745,0.11248255521059,0,
00:00:01.475,0.0872916802763939,0,
00:00:01.4755,0.0440459102392197,0,
00:00:01.476,0.0222353748977184,0,
00:00:01.4765,0.0115731358528137,0,
00:00:01.477,-0.00107293308246881,0,
00:00:01.4775,-0.0105333505198359,0,
00:00:01.478,-0.0177691578865051,0,
00:00:01.4785,-0.0233961101621389,0,
00:00:01.479,-0.0277371685951948,0,
00:00:01.4795,-0.0308773443102837,0,
00:00:01.48,-0.0176646560430527,0,
00:00:01.4805,-0.00185632903594524,0,
00:00:01.481,0.00101304752752185,0,
00:00:01.4815,-0.00040698135853745,0,
00:00:01.482,0.00079002883285284,0,
00:00:01.4825,0.00491418922320008,0,
00:00:01.483,0.00715413130819798,0,
00:00:01.4835,0.0139230424538255,0,
00:00:01.484,0.00490634422749281,0,
00:00:01.4845,-0.0200330745428801,0,
00:00:01.485,-0.040496289730072,0,
00:00:01.4855,-0.046019870787859,0,
00:00:01.486,-0.049200251698494,0,
00:00:01.4865,-0.0449005626142025,0,
00:00:01.487,-0.0345993712544441,0,
00:00:01.4875,-0.0198234170675278,0,
00:00:01.488,-0.0121398800984025,0,
00:00:01.4885,-0.00539084756746888,0,
00:00:01.489,-2.6585996238282E-05,0,
00:00:01.4895,0.00848946254700422,0,
00:00:01.49,0.0284134745597839,0,
00:00:01.4905,0.0405177809298038,0,
00:00:01.491,0.0451927967369556,0,
00:00:01.4915,0.0479190647602081,0,
00:00:01.492,0.0378988571465015,0,
00:00:01.4925,0.0223011188209057,0,
00:00:01.493,0.0119130881503224,0,
00:00:01.4935,0.00495757441967726,0,
00:00:01.494,0.00512422202154994,0,
00:00:01.4945,0.000138761781272478,0,
00:00:01.495,0.000966490595601499,0,
00:00:01.4955,-0.00903495866805315,0,
00:00:01.496,-0.00700666289776564,0,
00:00:01.4965,0.00439970381557941,0,
00:00:01.497,0.0230389479547739,0,
00:00:01.4975,0.0271196532994509,0,
00:00:01.498,0.0205335970968008,0,
00:00:01.4985,-0.0133381607010961,0,
00:00:01.499,-0.0110346945002675,0,
00:00:01.4995,0.040133249014616,0,
00:00:01.5,-0.0171691607683897,0,
00:00:01.5005,0.0305379368364811,0,
00:00:01.501,0.00801977049559355,0,
00:00:01.5015,-0.0368188917636871,0,
00:00:01.502,-0.05646638199687,0,
00:00:01.5025,-0.0603851936757565,0,
00:00:01.503,-0.0614902041852474,0,
00:00:01.5035,-0.0448880232870579,0,
00:00:01.504,-0.0349981971085072,0,
00:00:01.5045,-0.0205164942890406,0,
00:00:01.505,-0.0081644169986248,0,
00:00:01.5055,0.0117921838536859,0,
00:00:01.506,0.0263327844440937,0,
00:00:01.5065,0.0454957559704781,0,
00:00:01.507,0.0516153648495674,0,
00:00:01.5075,0.0614928938448429,0,
00:00:01.508,0.0577558875083923,0,
00:00:01.5085,0.0424837805330753,0,
00:00:01.509,0.0176604017615318,0,
00:00:01.5095,0.00526517862454057,0,
00:00:01.51,-0.00314072356559336,0,
00:00:01.5105,-0.00901093799620867,0,
00:00:01.511,-0.0133794397115707,0,
00:00:01.5115,-0.0169074814766645,0,
00:00:01.512,-0.0199352577328682,0,
00:00:01.5125,-0.0225368924438953,0,
00:00:01.513,-0.0145407635718584,0,
00:00:01.5135,0.00171031430363655,0,
00:00:01.514,0.0042545897886157,0,
00:00:01.5145,0.00687594711780548,0,
00:00:01.515,0.000241634304984473,0,
00:00:01.5155,-0.0023523282725364,0,
00:00:01.516,-0.000745042925700545,0,
00:00:01.5165,9.15539203560911E-05,0,
00:00:01.517,0.00138384383171797,0,
00:00:01.5175,-0.0210587996989489,0,
00:00:01.518,-0.045022439211607,0,
00:00:01.5185,-0.0584500133991241,0,
00:00:01.519,-0.0575018040835857,0,
00:00:01.5195,-0.04984325543046,0,
00:00:01.52,-0.041761290282011,0,
00:00:01.5205,-0.028277026489377,0,
00:00:01.521,-0.0159832257777452,0,
00:00:01.5215,-0.00512268021702766,0,
00:00:01.522,0.00394437881186605,0,
00:00:01.5225,0.0208317562937737,0,
00:00:01.523,0.0374572426080704,0,
00:00:01.5235,0.0524646863341331,0,
00:00:01.524,0.0597084499895573,0,
00:00:01.5245,0.0646431744098663,0,
00:00:01.525,0.0514174029231071,0,
00:00:01.5255,0.0234566330909729,0,
00:00:01.526,-0.0361505039036274,0,
00:00:01.5265,-0.0339107289910316,0,
00:00:01.527,0.035139873623848,0,
00:00:01.5275,-0.0228412225842476,0,
00:00:01.528,0.0284402184188366,0,
00:00:01.5285,0.0414240807294846,0,
00:00:01.529,0.0143137779086828,0,
00:00:01.5295,0.00737551273778081,0,
00:00:01.53,0.0164017509669065,0,
00:00:01.5305,0.0228081364184618,0,
00:00:01.531,0.0225780792534351,0,
00:00:01.5315,0.0129714068025351,0,
00:00:01.532,0.0123729947954416,0,
00:00:01.5325,0.00966322608292103,0,
00:00:01.533,0.00645159650593996,0,
00:00:01.5335,0.00401735631749034,0,
00:00:01.534,-0.0167649537324905,0,
00:00:01.5345,-0.0449936911463737,0,
00:00:01.535,-0.0721059963107109,0,
00:00:01.5355,-0.0765699222683907,0,
00:00:01.536,-0.0777638033032417,0,
00:00:01.5365,-0.075809933245182,0,
00:00:01.537,-0.0660753026604652,0,
00:00:01.5375,-0.0454472601413727,0,
00:00:01.538,-0.0271504893898964,0,
00:00:01.5385,-0.00646765483543277,0,
00:00:01.539,0.0199341420084238,0,
00:00:01.5395,0.0441980436444283,0,
00:00:01.54,0.0651758760213852,0,
00:00:01.5405,0.0769136250019073,0,
00:00:01.541,0.0850422233343124,0,
00:00:01.5415,0.0788904055953026,0,
00:00:01.542,0.0556990839540958,0,
00:00:01.5425,0.0289816111326218,0,
00:00:01.543,0.0193950589746237,0,
00:00:01.5435,0.00732217542827129,0,
00:00:01.544,0.00299784960225224,0,
00:00:01.5445,-0.00583655713126063,0,
00:00:01.545,-0.00820690672844648,0,
00:00:01.5455,-0.0157366879284382,0,
00:00:01.546,-0.052054900676012,0,
00:00:01.5465,-0.0288405921310186,0,
00:00:01.547,0.0499838888645172,0,
00:00:01.5475,-0.015910305082798,0,
00:00:01.548,0.0454548038542271,0,
00:00:01.5485,0.0431105718016624,0,
00:00:01.549,0.0128070581704378,0,
00:00:01.5495,-0.00697960890829563,0,
00:00:01.55,-0.0119900982826948,0,
00:00:01.5505,-0.0244739446789026,0,
00:00:01.551,-0.0864416509866714,0,
00:00:01.5515,-0.0932312309741974,0,
00:00:01.552,-0.0262881461530924,0,
00:00:01.5525,-0.0443987771868706,0,
00:00:01.553,-0.0515510626137257,0,
00:00:01.5535,-0.0747615098953247,0,
00:00:01.554,-0.0491856895387173,0,
00:00:01.5545,0.0282033197581768,0,
00:00:01.555,-0.0278056841343641,0,
00:00:01.5555,0.0556596890091896,0,
00:00:01.556,0.0474712960422039,0,
00:00:01.5565,0.0434031821787357,0,
00:00:01.557,0.116888806223869,0,
00:00:01.5575,0.0960923880338669,0,
00:00:01.558,0.0724088922142982,0,
00:00:01.5585,0.0409791767597198,0,
00:00:01.559,0.013434024527669,0,
00:00:01.5595,-0.0113168079406023,0,
00:00:01.56,-0.0641605481505394,0,
00:00:01.5605,0.00783413741737604,0,
00:00:01.561,0.0125359827652574,0,
00:00:01.5615,-0.0200522392988205,0,
00:00:01.562,-0.0354004800319672,0,
00:00:01.5625,-0.0470472648739815,0,
00:00:01.563,-0.0402018763124943,0,
00:00:01.5635,-0.0189045127481222,0,
00:00:01.564,-0.0166541766375303,0,
00:00:01.5645,-0.0133341243490577,0,
00:00:01.565,-0.0184613130986691,0,
00:00:01.5655,-0.00887857750058174,0,
00:00:01.566,-0.00227491091936827,0,
00:00:01.5665,0.00291543104685843,0,
00:00:01.567,0.0129505973309278,0,
00:00:01.5675,-0.00769653590396047,0,
00:00:01.568,-0.0302822850644588,0,
00:00:01.5685,-0.0678323730826378,0,
00:00:01.569,-0.0647551566362381,0,
00:00:01.5695,0.00027422362472862,0,
00:00:01.57,-0.0090106287971139,0,
00:00:01.5705,-0.00974010210484266,0,
00:00:01.571,0.00115410366561264,0,
00:00:01.5715,0.00539725460112095,0,
00:00:01.572,0.0140193337574601,0,
00:00:01.5725,0.0301631558686495,0,
00:00:01.573,0.0458018183708191,0,
00:00:01.5735,0.0596351809799671,0,
00:00:01.574,0.0705914869904518,0,
00:00:01.5745,0.0678096637129784,0,
00:00:01.575,0.0633898451924324,0,
00:00:01.5755,0.0365956127643585,0,
00:00:01.576,0.0173952803015709,0,
00:00:01.5765,0.0086605167016387,0,
00:00:01.577,-0.00764980306848884,0,
00:00:01.5775,-0.0550537407398224,0,
00:00:01.578,0.0151276234537363,0,
00:00:01.5785,0.0227929875254631,0,
00:00:01.579,-0.00296427053399384,0,
00:00:01.5795,-0.00843018107116222,0,
00:00:01.58,-0.00286191026680171,0,
00:00:01.5805,0.00145551015157253,0,
00:00:01.581,0.000291277508949861,0,
00:00:01.5815,-0.0042783529497683,0,
00:00:01.582,-0.00540812546387315,0,
00:00:01.5825,0.00215789745561779,0,
00:00:01.583,-0.00284346286207438,0,
00:00:01.5835,-0.00124319700989872,0,
00:00:01.584,-0.0186604969203472,0,
00:00:01.5845,-0.0391394533216953,0,
00:00:01.585,-0.0553910173475742,0,
00:00:01.5855,-0.0570097044110298,0,
00:00:01.586,-0.0817359164357185,0,
00:00:01.5865,-0.0627021044492722,0,
00:00:01.587,0.0148838488385081,0,
00:00:01.5875,0.0148081053048372,0,
00:00:01.588,0.0100198891013861,0,
00:00:01.5885,0.0114157106727362,0,
00:00:01.589,0.0169741287827492,0,
00:00:01.5895,0.0198264867067337,0,
00:00:01.59,0.00960699655115604,0,
00:00:01.5905,0.0589281432330608,0,
00:00:01.591,0.0611407570540905,0,
00:00:01.5915,0.0509749948978424,0,
00:00:01.592,0.0203956589102745,0,
00:00:01.5925,-0.0411044061183929,0,
00:00:01.593,0.0150514962151647,0,
00:00:01.5935,0.0236836168915033,0,
00:00:01.594,-0.000231121899560094,0,
00:00:01.5945,-0.0189233124256134,0,
00:00:01.595,-0.0233550872653723,0,
00:00:01.5955,-0.0318838320672512,0,
00:00:01.596,-0.0332025811076164,0,
00:00:01.5965,-0.0186250638216734,0,
00:00:01.597,-0.00184519123286009,0,
00:00:01.5975,-0.00334983970969915,0,
00:00:01.598,-0.00808942969888449,0,
00:00:01.5985,-0.00927070993930101,0,
00:00:01.599,-0.00166882597841322,0,
00:00:01.5995,-0.00154204422142357,0,
00:00:01.6,0.00394637836143374,0,
00:00:01.6005,-0.000595524266827852,0,
00:00:01.601,-0.0468206703662872,0,
00:00:01.6015,-0.0524630062282085,0,
00:00:01.602,0.00431098183616996,0,
00:00:01.6025,-0.0123338401317596,0,
00:00:01.603,-0.0241997875273228,0,
00:00:01.6035,-0.0166105087846518,0,
00:00:01.604,-0.00917008053511381,0,
00:00:01.6045,0.00290405936539173,0,
00:00:01.605,0.00787705555558205,0,
00:00:01.6055,0.0218230783939362,0,
00:00:01.606,0.0415875427424908,0,
00:00:01.6065,0.0593672171235085,0,
00:00:01.607,0.0690623670816422,0,
00:00:01.6075,0.0711281821131706,0,
00:00:01.608,0.0710977464914322,0,
00:00:01.6085,0.0481790155172348,0,
00:00:01.609,0.0222412534058094,0,
00:00:01.6095,0.00374109647236764,0,
00:00:01.61,-0.0495549701154232,0,
00:00:01.6105,0.0218040961772203,0,
00:00:01.611,0.0256852954626083,0,
00:00:01.6115,-0.00288820290006697,0,
00:00:01.612,-0.0207312852144241,0,
00:00:01.6125,-0.0298406630754471,0,
00:00:01.613,-0.0267733912914991,0,
00:00:01.6135,-0.0140672950074077,0,
00:00:01.614,-0.00383300334215164,0,
00:00:01.6145,-0.00516485562548041,0,
00:00:01.615,-0.00449906848371029,0,
00:00:01.6155,-0.00138409377541393,0,
00:00:01.616,-0.0305951181799173,0,
00:00:01.6165,-0.0224825218319893,0,
00:00:01.617,0.0402957089245319,0,
00:00:01.6175,-0.0063092103227973,0,
00:00:01.618,-0.0443664938211441,0,
00:00:01.6185,-0.0637422055006027,0,
00:00:01.619,-0.0723396614193916,0,
00:00:01.6195,-0.0766960754990578,0,
